'Elapsed time','i','ii','iii','avr','avl','avf','v1','v2','v3','v4','v5','v6','vx','vy','vz'
'hh:mm:ss.mmm','mV','mV','mV','mV','mV','mV','mV','mV','mV','mV','mV','mV','mV','mV','mV'
0,0.092,0.024,-0.069,-0.058,0.081,-0.023,0.097,0.165,0.22,0.267,0.288,0.113,0.114,-0.046,0.095
0.001,0.09,0.025,-0.066,-0.058,0.078,-0.021,0.111,0.175,0.226,0.28,0.295,0.12,0.114,-0.045,0.09
0.002,0.09,0.027,-0.063,-0.059,0.076,-0.018,0.106,0.177,0.228,0.284,0.301,0.126,0.118,-0.051,0.091
0.003,0.094,0.032,-0.063,-0.063,0.079,-0.016,0.109,0.183,0.232,0.289,0.303,0.126,0.116,-0.05,0.089
0.004,0.091,0.034,-0.058,-0.062,0.074,-0.012,0.113,0.186,0.236,0.291,0.307,0.126,0.117,-0.048,0.086
0.005,0.091,0.029,-0.061,-0.06,0.076,-0.016,0.11,0.188,0.238,0.291,0.306,0.127,0.119,-0.051,0.086
0.006,0.099,0.036,-0.063,-0.068,0.081,-0.013,0.108,0.187,0.239,0.295,0.31,0.131,0.123,-0.051,0.089
0.007,0.102,0.043,-0.059,-0.073,0.081,-0.007,0.114,0.193,0.246,0.303,0.318,0.137,0.127,-0.049,0.088
0.008,0.099,0.046,-0.053,-0.072,0.076,-0.004,0.113,0.195,0.247,0.304,0.319,0.139,0.127,-0.04,0.086
0.009,0.098,0.048,-0.05,-0.073,0.074,-0.002,0.112,0.195,0.25,0.309,0.321,0.142,0.129,-0.041,0.087
0.01,0.096,0.048,-0.049,-0.072,0.072,0,0.112,0.198,0.25,0.311,0.321,0.141,0.13,-0.042,0.085
0.011,0.101,0.051,-0.051,-0.076,0.076,0,0.101,0.196,0.247,0.307,0.32,0.139,0.134,-0.035,0.084
0.012,0.105,0.05,-0.055,-0.077,0.08,-0.003,0.102,0.195,0.248,0.308,0.322,0.142,0.139,-0.035,0.085
0.013,0.103,0.047,-0.056,-0.075,0.08,-0.004,0.108,0.194,0.247,0.308,0.321,0.141,0.137,-0.037,0.085
0.014,0.103,0.046,-0.057,-0.075,0.08,-0.005,0.104,0.199,0.251,0.31,0.323,0.14,0.136,-0.036,0.086
0.015,0.104,0.05,-0.054,-0.077,0.079,-0.003,0.099,0.202,0.254,0.316,0.328,0.143,0.14,-0.029,0.087
0.016,0.109,0.052,-0.056,-0.081,0.083,-0.002,0.103,0.206,0.26,0.321,0.333,0.147,0.143,-0.03,0.083
0.017,0.108,0.052,-0.056,-0.08,0.082,-0.002,0.104,0.205,0.26,0.319,0.331,0.145,0.144,-0.032,0.08
0.018,0.107,0.051,-0.056,-0.079,0.082,-0.003,0.097,0.202,0.258,0.318,0.33,0.145,0.146,-0.03,0.082
0.019,0.112,0.049,-0.062,-0.08,0.086,-0.006,0.094,0.202,0.259,0.319,0.332,0.144,0.148,-0.03,0.083
0.02,0.11,0.049,-0.06,-0.079,0.085,-0.005,0.095,0.208,0.263,0.326,0.337,0.148,0.149,-0.03,0.082
0.021,0.106,0.057,-0.05,-0.082,0.078,0.004,0.099,0.215,0.27,0.336,0.344,0.155,0.151,-0.034,0.083
0.022,0.111,0.063,-0.048,-0.086,0.08,0.007,0.102,0.22,0.277,0.345,0.353,0.162,0.154,-0.03,0.08
0.023,0.114,0.066,-0.049,-0.09,0.082,0.009,0.101,0.223,0.279,0.348,0.357,0.165,0.158,-0.026,0.078
0.024,0.114,0.067,-0.047,-0.09,0.081,0.01,0.096,0.222,0.279,0.347,0.358,0.163,0.159,-0.026,0.078
0.025,0.116,0.068,-0.048,-0.092,0.082,0.01,0.098,0.226,0.284,0.353,0.363,0.166,0.162,-0.023,0.074
0.026,0.116,0.074,-0.043,-0.095,0.079,0.016,0.101,0.229,0.289,0.356,0.367,0.17,0.164,-0.021,0.076
0.027,0.119,0.076,-0.043,-0.098,0.081,0.017,0.1,0.233,0.292,0.363,0.371,0.175,0.166,-0.024,0.076
0.028,0.121,0.081,-0.04,-0.101,0.081,0.021,0.098,0.239,0.298,0.37,0.376,0.181,0.17,-0.021,0.073
0.029,0.119,0.087,-0.032,-0.103,0.075,0.028,0.102,0.242,0.304,0.377,0.383,0.183,0.172,-0.018,0.071
0.03,0.119,0.088,-0.032,-0.104,0.075,0.028,0.107,0.243,0.306,0.379,0.387,0.186,0.175,-0.017,0.069
0.031,0.114,0.081,-0.033,-0.098,0.073,0.024,0.098,0.24,0.302,0.374,0.383,0.183,0.176,-0.011,0.068
0.032,0.12,0.082,-0.038,-0.101,0.079,0.022,0.094,0.238,0.302,0.373,0.382,0.182,0.176,-0.011,0.068
0.033,0.132,0.091,-0.041,-0.111,0.086,0.025,0.097,0.244,0.308,0.382,0.39,0.189,0.185,-0.011,0.069
0.034,0.131,0.09,-0.04,-0.111,0.085,0.025,0.087,0.244,0.308,0.385,0.393,0.192,0.19,-0.009,0.07
0.035,0.131,0.092,-0.038,-0.111,0.084,0.027,0.091,0.246,0.311,0.387,0.398,0.196,0.191,-0.004,0.069
0.036,0.131,0.092,-0.038,-0.112,0.084,0.027,0.093,0.249,0.317,0.392,0.402,0.198,0.195,-0.004,0.067
0.037,0.133,0.092,-0.041,-0.113,0.086,0.026,0.086,0.246,0.314,0.39,0.4,0.194,0.194,-0.003,0.067
0.038,0.142,0.097,-0.045,-0.119,0.093,0.026,0.085,0.249,0.315,0.395,0.405,0.198,0.2,-0.001,0.066
0.039,0.142,0.099,-0.044,-0.12,0.093,0.027,0.083,0.253,0.318,0.4,0.41,0.201,0.204,0.002,0.065
0.04,0.14,0.102,-0.038,-0.12,0.088,0.032,0.082,0.259,0.323,0.406,0.416,0.205,0.207,0.006,0.067
0.041,0.141,0.108,-0.033,-0.124,0.086,0.037,0.09,0.267,0.332,0.419,0.425,0.215,0.211,0.004,0.065
0.042,0.141,0.114,-0.028,-0.128,0.084,0.043,0.09,0.274,0.338,0.427,0.432,0.222,0.214,0.005,0.063
0.043,0.148,0.119,-0.029,-0.134,0.088,0.045,0.085,0.272,0.342,0.431,0.436,0.224,0.221,0.009,0.063
0.044,0.141,0.12,-0.02,-0.131,0.081,0.051,0.084,0.271,0.344,0.433,0.438,0.227,0.223,0.013,0.062
0.045,0.137,0.122,-0.015,-0.129,0.075,0.053,0.084,0.275,0.346,0.438,0.442,0.232,0.228,0.013,0.061
0.046,0.147,0.132,-0.015,-0.14,0.082,0.058,0.085,0.279,0.35,0.443,0.448,0.237,0.232,0.018,0.06
0.047,0.148,0.137,-0.011,-0.142,0.08,0.062,0.086,0.286,0.358,0.452,0.457,0.244,0.234,0.024,0.058
0.048,0.146,0.141,-0.005,-0.143,0.075,0.068,0.086,0.285,0.362,0.459,0.464,0.25,0.238,0.021,0.058
0.049,0.146,0.149,0.003,-0.148,0.071,0.076,0.086,0.289,0.366,0.465,0.47,0.257,0.242,0.029,0.057
0.05,0.149,0.151,0.002,-0.15,0.074,0.076,0.08,0.293,0.369,0.468,0.474,0.26,0.248,0.033,0.056
0.051,0.157,0.156,-0.001,-0.157,0.079,0.077,0.072,0.289,0.367,0.465,0.475,0.259,0.253,0.038,0.054
0.052,0.16,0.155,-0.004,-0.158,0.082,0.075,0.067,0.291,0.369,0.468,0.479,0.26,0.256,0.043,0.053
0.053,0.161,0.158,-0.004,-0.159,0.083,0.076,0.067,0.294,0.372,0.475,0.484,0.264,0.259,0.044,0.052
0.054,0.164,0.166,0.002,-0.165,0.081,0.084,0.062,0.297,0.377,0.483,0.493,0.273,0.268,0.046,0.052
0.055,0.168,0.172,0.005,-0.17,0.081,0.089,0.06,0.295,0.379,0.487,0.498,0.279,0.275,0.05,0.054
0.056,0.173,0.177,0.004,-0.175,0.084,0.091,0.066,0.3,0.383,0.491,0.501,0.281,0.279,0.053,0.051
0.057,0.17,0.178,0.008,-0.174,0.081,0.093,0.059,0.304,0.386,0.494,0.505,0.283,0.282,0.059,0.046
0.058,0.172,0.181,0.009,-0.177,0.081,0.096,0.056,0.3,0.386,0.497,0.511,0.288,0.287,0.061,0.048
0.059,0.177,0.183,0.006,-0.18,0.086,0.095,0.051,0.3,0.386,0.502,0.517,0.291,0.296,0.061,0.05
0.06,0.176,0.189,0.013,-0.182,0.082,0.101,0.047,0.303,0.389,0.51,0.524,0.297,0.301,0.064,0.051
0.061,0.174,0.201,0.027,-0.188,0.073,0.114,0.055,0.313,0.401,0.527,0.538,0.311,0.307,0.07,0.048
0.062,0.178,0.213,0.035,-0.196,0.071,0.124,0.057,0.322,0.408,0.537,0.549,0.319,0.312,0.079,0.044
0.063,0.181,0.219,0.037,-0.201,0.072,0.128,0.052,0.321,0.41,0.539,0.551,0.32,0.315,0.082,0.044
0.064,0.176,0.22,0.043,-0.199,0.067,0.132,0.049,0.318,0.411,0.542,0.557,0.324,0.319,0.087,0.043
0.065,0.174,0.224,0.049,-0.199,0.063,0.136,0.049,0.323,0.414,0.551,0.567,0.331,0.324,0.087,0.042
0.066,0.187,0.236,0.049,-0.211,0.069,0.142,0.043,0.324,0.419,0.559,0.577,0.34,0.333,0.092,0.044
0.067,0.192,0.246,0.056,-0.219,0.068,0.151,0.044,0.329,0.425,0.571,0.589,0.35,0.343,0.099,0.044
0.068,0.189,0.251,0.062,-0.22,0.063,0.157,0.045,0.332,0.43,0.579,0.596,0.358,0.348,0.102,0.043
0.069,0.192,0.264,0.072,-0.228,0.06,0.168,0.043,0.333,0.433,0.583,0.603,0.365,0.353,0.113,0.042
0.07,0.193,0.269,0.076,-0.231,0.058,0.172,0.038,0.334,0.433,0.585,0.608,0.369,0.359,0.116,0.041
0.071,0.197,0.268,0.071,-0.232,0.062,0.17,0.032,0.331,0.432,0.585,0.609,0.372,0.365,0.119,0.041
0.072,0.199,0.273,0.074,-0.235,0.062,0.173,0.028,0.332,0.434,0.588,0.615,0.376,0.371,0.125,0.041
0.073,0.203,0.275,0.072,-0.239,0.066,0.173,0.024,0.332,0.436,0.597,0.623,0.383,0.38,0.125,0.041
0.074,0.204,0.277,0.072,-0.24,0.066,0.175,0.018,0.331,0.436,0.6,0.626,0.388,0.384,0.131,0.043
0.075,0.209,0.288,0.079,-0.249,0.066,0.183,0.016,0.334,0.44,0.605,0.633,0.394,0.389,0.136,0.044
0.076,0.21,0.289,0.08,-0.25,0.066,0.184,0.011,0.333,0.443,0.611,0.638,0.398,0.392,0.138,0.042
0.077,0.204,0.289,0.085,-0.246,0.059,0.187,0.008,0.332,0.443,0.613,0.643,0.399,0.394,0.144,0.038
0.078,0.217,0.303,0.086,-0.26,0.066,0.195,0.009,0.334,0.447,0.621,0.654,0.407,0.404,0.149,0.039
0.079,0.223,0.306,0.083,-0.265,0.07,0.194,0.003,0.33,0.444,0.621,0.654,0.408,0.408,0.15,0.042
0.08,0.223,0.306,0.084,-0.265,0.07,0.195,0,0.332,0.445,0.626,0.658,0.413,0.409,0.15,0.04
0.081,0.222,0.316,0.095,-0.269,0.064,0.205,0.005,0.342,0.457,0.641,0.674,0.427,0.413,0.157,0.037
0.082,0.222,0.324,0.102,-0.273,0.06,0.213,0.003,0.344,0.461,0.649,0.681,0.436,0.421,0.157,0.039
0.083,0.225,0.331,0.106,-0.278,0.059,0.218,0.002,0.346,0.464,0.654,0.688,0.44,0.426,0.159,0.037
0.084,0.22,0.336,0.116,-0.278,0.052,0.226,-0.001,0.346,0.466,0.658,0.693,0.442,0.426,0.17,0.035
0.085,0.222,0.339,0.117,-0.281,0.052,0.229,-0.004,0.344,0.465,0.66,0.696,0.446,0.429,0.172,0.035
0.086,0.229,0.35,0.121,-0.289,0.053,0.236,-0.006,0.344,0.466,0.664,0.703,0.453,0.434,0.176,0.035
0.087,0.233,0.359,0.127,-0.296,0.053,0.243,-0.01,0.347,0.472,0.673,0.713,0.462,0.443,0.18,0.037
0.088,0.237,0.369,0.132,-0.303,0.052,0.251,-0.005,0.352,0.478,0.682,0.723,0.47,0.45,0.188,0.035
0.089,0.243,0.387,0.143,-0.316,0.051,0.265,-0.005,0.353,0.481,0.691,0.729,0.478,0.459,0.193,0.036
0.09,0.243,0.393,0.149,-0.318,0.046,0.272,-0.009,0.351,0.482,0.694,0.735,0.484,0.466,0.2,0.036
0.091,0.241,0.39,0.148,-0.315,0.046,0.269,-0.022,0.345,0.477,0.69,0.735,0.484,0.47,0.204,0.036
0.092,0.248,0.393,0.145,-0.321,0.051,0.269,-0.024,0.341,0.475,0.689,0.737,0.485,0.477,0.203,0.036
0.093,0.252,0.399,0.146,-0.325,0.053,0.272,-0.02,0.341,0.475,0.693,0.745,0.492,0.484,0.21,0.036
0.094,0.258,0.407,0.149,-0.333,0.054,0.279,-0.027,0.341,0.477,0.699,0.751,0.5,0.494,0.215,0.038
0.095,0.263,0.417,0.154,-0.34,0.054,0.286,-0.033,0.34,0.48,0.705,0.759,0.508,0.503,0.221,0.042
0.096,0.253,0.415,0.162,-0.334,0.045,0.288,-0.035,0.336,0.478,0.705,0.763,0.508,0.504,0.224,0.04
0.097,0.255,0.419,0.164,-0.337,0.045,0.292,-0.037,0.334,0.478,0.704,0.762,0.508,0.507,0.229,0.038
0.098,0.264,0.426,0.163,-0.345,0.051,0.294,-0.043,0.329,0.477,0.706,0.766,0.512,0.512,0.236,0.041
0.099,0.258,0.427,0.17,-0.342,0.044,0.298,-0.042,0.33,0.479,0.709,0.771,0.511,0.511,0.242,0.037
0.1,0.252,0.426,0.174,-0.34,0.039,0.3,-0.045,0.326,0.479,0.714,0.774,0.517,0.515,0.237,0.041
0.101,0.259,0.44,0.181,-0.349,0.039,0.31,-0.04,0.328,0.488,0.726,0.785,0.527,0.52,0.235,0.041
0.102,0.263,0.452,0.189,-0.357,0.037,0.321,-0.038,0.337,0.498,0.736,0.791,0.533,0.523,0.243,0.039
0.103,0.252,0.446,0.194,-0.349,0.029,0.32,-0.046,0.33,0.493,0.734,0.793,0.533,0.523,0.251,0.038
0.104,0.254,0.455,0.201,-0.354,0.026,0.328,-0.036,0.329,0.496,0.734,0.796,0.536,0.523,0.254,0.035
0.105,0.256,0.459,0.203,-0.357,0.026,0.331,-0.038,0.325,0.494,0.736,0.796,0.538,0.526,0.255,0.037
0.106,0.259,0.463,0.204,-0.361,0.028,0.334,-0.044,0.323,0.493,0.736,0.797,0.539,0.528,0.256,0.041
0.107,0.257,0.465,0.208,-0.361,0.024,0.337,-0.041,0.318,0.491,0.736,0.797,0.542,0.525,0.254,0.043
0.108,0.251,0.464,0.214,-0.357,0.018,0.339,-0.04,0.319,0.492,0.737,0.798,0.544,0.524,0.258,0.04
0.109,0.259,0.475,0.216,-0.367,0.021,0.345,-0.037,0.322,0.497,0.74,0.8,0.547,0.526,0.258,0.041
0.11,0.258,0.475,0.218,-0.366,0.019,0.346,-0.042,0.31,0.49,0.731,0.793,0.542,0.523,0.259,0.044
0.111,0.257,0.469,0.212,-0.363,0.022,0.341,-0.046,0.303,0.484,0.72,0.784,0.533,0.52,0.265,0.044
0.112,0.251,0.463,0.212,-0.356,0.019,0.338,-0.041,0.3,0.481,0.716,0.779,0.53,0.515,0.266,0.042
0.113,0.246,0.458,0.211,-0.352,0.018,0.334,-0.04,0.3,0.482,0.716,0.776,0.529,0.51,0.262,0.042
0.114,0.248,0.451,0.203,-0.35,0.023,0.327,-0.04,0.295,0.478,0.708,0.766,0.52,0.505,0.255,0.046
0.115,0.246,0.45,0.203,-0.348,0.021,0.327,-0.036,0.291,0.473,0.699,0.758,0.514,0.498,0.253,0.047
0.116,0.245,0.445,0.2,-0.345,0.022,0.323,-0.032,0.29,0.473,0.694,0.751,0.508,0.491,0.253,0.045
0.117,0.24,0.433,0.194,-0.337,0.023,0.314,-0.033,0.283,0.464,0.68,0.737,0.494,0.483,0.246,0.044
0.118,0.239,0.426,0.186,-0.333,0.026,0.306,-0.033,0.279,0.459,0.669,0.726,0.484,0.476,0.24,0.047
0.119,0.236,0.418,0.182,-0.328,0.028,0.3,-0.025,0.276,0.457,0.659,0.716,0.473,0.467,0.238,0.047
0.12,0.229,0.407,0.178,-0.318,0.025,0.293,-0.023,0.279,0.457,0.654,0.706,0.466,0.457,0.232,0.048
0.121,0.223,0.398,0.174,-0.31,0.024,0.286,-0.015,0.283,0.457,0.651,0.698,0.462,0.445,0.218,0.049
0.122,0.219,0.393,0.174,-0.306,0.022,0.283,-0.002,0.282,0.455,0.642,0.689,0.455,0.434,0.209,0.048
0.123,0.213,0.385,0.172,-0.298,0.021,0.278,0.004,0.283,0.453,0.634,0.677,0.444,0.425,0.208,0.045
0.124,0.204,0.372,0.168,-0.288,0.018,0.27,0.009,0.284,0.449,0.624,0.664,0.432,0.413,0.202,0.043
0.125,0.204,0.36,0.155,-0.282,0.025,0.258,0.015,0.278,0.443,0.609,0.648,0.419,0.402,0.192,0.043
0.126,0.202,0.351,0.149,-0.277,0.026,0.251,0.021,0.277,0.438,0.599,0.636,0.41,0.391,0.188,0.045
0.127,0.196,0.34,0.145,-0.268,0.025,0.242,0.025,0.278,0.435,0.59,0.625,0.403,0.38,0.175,0.048
0.128,0.195,0.328,0.133,-0.261,0.031,0.23,0.035,0.277,0.431,0.579,0.612,0.392,0.366,0.16,0.048
0.129,0.185,0.316,0.131,-0.251,0.028,0.223,0.043,0.279,0.426,0.568,0.6,0.384,0.355,0.155,0.046
0.13,0.178,0.306,0.127,-0.242,0.026,0.216,0.051,0.275,0.419,0.553,0.585,0.371,0.344,0.15,0.048
0.131,0.175,0.292,0.116,-0.234,0.029,0.204,0.049,0.266,0.406,0.532,0.565,0.352,0.333,0.144,0.048
0.132,0.172,0.276,0.104,-0.224,0.034,0.191,0.047,0.258,0.393,0.513,0.545,0.338,0.321,0.136,0.049
0.133,0.165,0.262,0.097,-0.213,0.034,0.179,0.059,0.253,0.386,0.5,0.529,0.327,0.306,0.127,0.05
0.134,0.158,0.248,0.09,-0.203,0.034,0.169,0.064,0.248,0.377,0.484,0.513,0.312,0.293,0.116,0.052
0.135,0.162,0.243,0.082,-0.203,0.04,0.163,0.07,0.245,0.367,0.471,0.5,0.302,0.283,0.111,0.056
0.136,0.153,0.229,0.075,-0.191,0.039,0.152,0.072,0.237,0.359,0.458,0.484,0.289,0.271,0.102,0.056
0.137,0.144,0.214,0.07,-0.179,0.037,0.142,0.073,0.232,0.352,0.443,0.469,0.275,0.258,0.097,0.054
0.138,0.139,0.201,0.062,-0.17,0.038,0.132,0.085,0.231,0.344,0.43,0.457,0.263,0.246,0.093,0.054
0.139,0.135,0.182,0.049,-0.159,0.043,0.116,0.085,0.224,0.335,0.417,0.442,0.251,0.236,0.079,0.057
0.14,0.134,0.173,0.04,-0.153,0.047,0.107,0.087,0.223,0.33,0.408,0.43,0.242,0.228,0.067,0.059
0.141,0.121,0.164,0.042,-0.142,0.04,0.103,0.1,0.223,0.329,0.402,0.422,0.235,0.214,0.056,0.06
0.142,0.115,0.156,0.041,-0.136,0.037,0.099,0.107,0.222,0.324,0.395,0.413,0.228,0.203,0.05,0.061
0.143,0.112,0.147,0.036,-0.129,0.038,0.091,0.106,0.214,0.314,0.381,0.399,0.216,0.192,0.043,0.062
0.144,0.11,0.138,0.028,-0.123,0.041,0.083,0.107,0.209,0.307,0.369,0.387,0.205,0.181,0.035,0.064
0.145,0.102,0.124,0.022,-0.114,0.04,0.073,0.114,0.212,0.303,0.362,0.379,0.201,0.176,0.029,0.063
0.146,0.097,0.114,0.017,-0.105,0.04,0.065,0.118,0.208,0.296,0.352,0.367,0.194,0.168,0.019,0.067
0.147,0.098,0.11,0.012,-0.104,0.043,0.061,0.12,0.203,0.289,0.343,0.359,0.185,0.158,0.011,0.072
0.148,0.09,0.1,0.009,-0.095,0.041,0.054,0.127,0.2,0.283,0.334,0.349,0.175,0.146,0.004,0.07
0.149,0.088,0.092,0.004,-0.09,0.042,0.048,0.128,0.197,0.279,0.329,0.342,0.17,0.139,0.001,0.07
0.15,0.084,0.085,0.001,-0.085,0.042,0.043,0.122,0.188,0.267,0.315,0.33,0.16,0.132,-0.003,0.074
0.151,0.085,0.077,-0.007,-0.082,0.046,0.035,0.128,0.179,0.254,0.296,0.316,0.146,0.123,-0.006,0.076
0.152,0.085,0.068,-0.017,-0.076,0.051,0.025,0.125,0.169,0.243,0.282,0.303,0.137,0.118,-0.007,0.079
0.153,0.08,0.058,-0.022,-0.069,0.051,0.018,0.129,0.166,0.238,0.276,0.296,0.13,0.111,-0.015,0.082
0.154,0.082,0.05,-0.032,-0.066,0.057,0.009,0.132,0.165,0.234,0.27,0.289,0.124,0.105,-0.025,0.085
0.155,0.07,0.036,-0.034,-0.053,0.052,0.001,0.126,0.15,0.223,0.256,0.278,0.116,0.096,-0.029,0.089
0.156,0.07,0.032,-0.038,-0.051,0.054,-0.003,0.13,0.153,0.219,0.249,0.272,0.109,0.088,-0.035,0.086
0.157,0.07,0.024,-0.047,-0.047,0.059,-0.011,0.126,0.149,0.212,0.243,0.263,0.102,0.085,-0.037,0.087
0.158,0.066,0.012,-0.053,-0.039,0.059,-0.021,0.126,0.141,0.203,0.233,0.253,0.096,0.08,-0.043,0.093
0.159,0.07,0.008,-0.062,-0.039,0.067,-0.028,0.126,0.14,0.199,0.227,0.247,0.09,0.077,-0.049,0.094
0.16,0.069,0.003,-0.067,-0.036,0.068,-0.032,0.128,0.135,0.193,0.221,0.24,0.086,0.072,-0.056,0.097
0.161,0.066,0.002,-0.065,-0.034,0.066,-0.032,0.135,0.134,0.192,0.218,0.239,0.086,0.068,-0.062,0.101
0.162,0.062,-0.003,-0.065,-0.029,0.064,-0.034,0.137,0.132,0.19,0.218,0.237,0.085,0.064,-0.063,0.1
0.163,0.059,-0.004,-0.064,-0.028,0.061,-0.035,0.139,0.132,0.185,0.214,0.233,0.082,0.061,-0.068,0.1
0.164,0.061,-0.006,-0.068,-0.028,0.065,-0.037,0.139,0.128,0.181,0.207,0.228,0.077,0.058,-0.073,0.102
0.165,0.055,-0.018,-0.073,-0.018,0.065,-0.046,0.14,0.124,0.176,0.201,0.221,0.073,0.052,-0.079,0.103
0.166,0.05,-0.025,-0.074,-0.012,0.062,-0.05,0.138,0.117,0.17,0.196,0.216,0.072,0.051,-0.079,0.107
0.167,0.051,-0.022,-0.074,-0.015,0.063,-0.049,0.142,0.121,0.172,0.198,0.217,0.074,0.051,-0.084,0.109
0.168,0.048,-0.025,-0.072,-0.012,0.06,-0.048,0.143,0.122,0.171,0.195,0.216,0.07,0.045,-0.088,0.108
0.169,0.049,-0.025,-0.074,-0.011,0.061,-0.05,0.141,0.118,0.167,0.192,0.213,0.069,0.043,-0.088,0.11
0.17,0.05,-0.021,-0.071,-0.015,0.06,-0.046,0.143,0.116,0.165,0.188,0.211,0.067,0.041,-0.086,0.111
0.171,0.046,-0.031,-0.077,-0.007,0.061,-0.054,0.138,0.102,0.152,0.173,0.199,0.057,0.036,-0.084,0.114
0.172,0.048,-0.04,-0.087,-0.004,0.068,-0.064,0.135,0.099,0.146,0.169,0.194,0.053,0.035,-0.087,0.115
0.173,0.05,-0.042,-0.091,-0.004,0.07,-0.067,0.136,0.1,0.147,0.171,0.196,0.052,0.033,-0.093,0.114
0.174,0.043,-0.049,-0.092,0.003,0.068,-0.071,0.133,0.092,0.14,0.164,0.192,0.051,0.032,-0.098,0.118
0.175,0.043,-0.049,-0.092,0.003,0.068,-0.07,0.135,0.091,0.137,0.159,0.19,0.05,0.03,-0.098,0.12
0.176,0.049,-0.049,-0.099,0,0.073,-0.073,0.139,0.094,0.137,0.158,0.188,0.048,0.029,-0.103,0.119
0.177,0.047,-0.053,-0.1,0.003,0.073,-0.076,0.137,0.089,0.133,0.151,0.182,0.043,0.026,-0.104,0.119
0.178,0.045,-0.06,-0.104,0.007,0.075,-0.083,0.133,0.081,0.126,0.144,0.176,0.037,0.023,-0.103,0.122
0.179,0.048,-0.062,-0.111,0.007,0.079,-0.086,0.131,0.08,0.122,0.142,0.176,0.037,0.025,-0.103,0.122
0.18,0.048,-0.059,-0.107,0.005,0.078,-0.084,0.137,0.084,0.125,0.144,0.174,0.035,0.021,-0.105,0.123
0.181,0.047,-0.06,-0.107,0.006,0.077,-0.084,0.143,0.086,0.125,0.148,0.175,0.037,0.02,-0.111,0.123
0.182,0.046,-0.055,-0.101,0.004,0.073,-0.078,0.144,0.09,0.127,0.151,0.177,0.041,0.021,-0.111,0.123
0.183,0.041,-0.057,-0.098,0.008,0.069,-0.077,0.143,0.087,0.128,0.149,0.175,0.04,0.019,-0.112,0.124
0.184,0.04,-0.059,-0.099,0.009,0.07,-0.079,0.141,0.087,0.124,0.146,0.175,0.037,0.018,-0.111,0.123
0.185,0.042,-0.059,-0.101,0.009,0.07,-0.08,0.143,0.087,0.125,0.145,0.172,0.036,0.016,-0.112,0.123
0.186,0.043,-0.059,-0.102,0.007,0.073,-0.081,0.14,0.083,0.124,0.143,0.173,0.04,0.018,-0.118,0.13
0.187,0.048,-0.058,-0.105,0.005,0.076,-0.081,0.137,0.084,0.125,0.146,0.174,0.041,0.018,-0.12,0.133
0.188,0.043,-0.059,-0.102,0.008,0.072,-0.081,0.146,0.087,0.128,0.148,0.176,0.043,0.015,-0.119,0.129
0.189,0.04,-0.059,-0.1,0.009,0.07,-0.08,0.147,0.087,0.128,0.147,0.177,0.045,0.013,-0.12,0.127
0.19,0.038,-0.062,-0.101,0.012,0.07,-0.082,0.144,0.083,0.124,0.144,0.172,0.041,0.014,-0.118,0.127
0.191,0.039,-0.064,-0.103,0.013,0.071,-0.084,0.139,0.077,0.118,0.135,0.167,0.035,0.013,-0.113,0.13
0.192,0.039,-0.07,-0.108,0.015,0.074,-0.089,0.139,0.072,0.115,0.132,0.164,0.033,0.01,-0.114,0.129
0.193,0.039,-0.075,-0.114,0.018,0.076,-0.095,0.14,0.073,0.115,0.133,0.166,0.034,0.011,-0.117,0.129
0.194,0.04,-0.074,-0.115,0.017,0.077,-0.095,0.138,0.073,0.113,0.132,0.166,0.032,0.011,-0.12,0.131
0.195,0.044,-0.07,-0.114,0.013,0.079,-0.092,0.138,0.072,0.112,0.132,0.165,0.033,0.011,-0.119,0.133
0.196,0.043,-0.074,-0.117,0.015,0.08,-0.096,0.132,0.071,0.111,0.13,0.162,0.031,0.01,-0.121,0.133
0.197,0.035,-0.082,-0.117,0.024,0.076,-0.1,0.133,0.069,0.106,0.126,0.154,0.025,0.005,-0.121,0.129
0.198,0.038,-0.081,-0.119,0.021,0.079,-0.1,0.134,0.068,0.104,0.121,0.15,0.022,0.005,-0.118,0.13
0.199,0.042,-0.082,-0.123,0.02,0.083,-0.102,0.132,0.067,0.104,0.119,0.15,0.019,0.004,-0.118,0.131
0.2,0.038,-0.084,-0.122,0.022,0.081,-0.103,0.136,0.068,0.107,0.121,0.153,0.022,0.004,-0.12,0.131
0.201,0.037,-0.081,-0.118,0.021,0.078,-0.1,0.139,0.074,0.111,0.128,0.157,0.026,0.004,-0.124,0.132
0.202,0.04,-0.075,-0.116,0.018,0.077,-0.096,0.142,0.08,0.115,0.134,0.16,0.029,0.005,-0.128,0.132
0.203,0.04,-0.072,-0.113,0.017,0.076,-0.093,0.143,0.079,0.114,0.133,0.162,0.029,0.004,-0.127,0.132
0.204,0.035,-0.075,-0.111,0.019,0.073,-0.092,0.142,0.074,0.11,0.13,0.161,0.027,0.003,-0.127,0.132
0.205,0.03,-0.08,-0.111,0.025,0.07,-0.096,0.146,0.077,0.112,0.131,0.161,0.028,0.003,-0.129,0.131
0.206,0.032,-0.076,-0.107,0.022,0.07,-0.092,0.145,0.078,0.112,0.13,0.159,0.026,0.002,-0.124,0.132
0.207,0.035,-0.07,-0.105,0.018,0.07,-0.088,0.144,0.076,0.11,0.13,0.161,0.029,0.003,-0.123,0.135
0.208,0.03,-0.069,-0.099,0.019,0.065,-0.084,0.146,0.079,0.113,0.133,0.163,0.03,0.002,-0.126,0.133
0.209,0.031,-0.065,-0.097,0.017,0.064,-0.081,0.142,0.078,0.113,0.132,0.165,0.03,0.001,-0.128,0.134
0.21,0.031,-0.066,-0.097,0.017,0.064,-0.081,0.144,0.079,0.114,0.133,0.166,0.031,0.002,-0.121,0.131
0.211,0.038,-0.062,-0.101,0.012,0.069,-0.082,0.14,0.076,0.111,0.126,0.161,0.025,0.004,-0.117,0.131
0.212,0.044,-0.064,-0.108,0.01,0.076,-0.086,0.137,0.071,0.107,0.122,0.157,0.024,0.006,-0.119,0.134
0.213,0.042,-0.069,-0.11,0.013,0.076,-0.089,0.138,0.069,0.106,0.123,0.157,0.028,0.007,-0.121,0.133
0.214,0.043,-0.069,-0.112,0.013,0.077,-0.09,0.138,0.07,0.105,0.122,0.157,0.025,0.005,-0.123,0.135
0.215,0.042,-0.071,-0.113,0.015,0.077,-0.092,0.137,0.07,0.104,0.12,0.154,0.024,0.004,-0.119,0.136
0.216,0.038,-0.075,-0.114,0.018,0.076,-0.095,0.132,0.072,0.105,0.122,0.154,0.024,0.004,-0.122,0.135
0.217,0.035,-0.081,-0.115,0.023,0.075,-0.098,0.132,0.07,0.102,0.117,0.15,0.018,0,-0.124,0.132
0.218,0.035,-0.084,-0.118,0.024,0.077,-0.101,0.132,0.062,0.098,0.11,0.147,0.017,0.002,-0.121,0.134
0.219,0.033,-0.087,-0.12,0.027,0.077,-0.104,0.131,0.066,0.099,0.112,0.148,0.018,0.003,-0.122,0.132
0.22,0.035,-0.089,-0.123,0.027,0.079,-0.106,0.128,0.068,0.099,0.113,0.149,0.017,0.003,-0.127,0.135
0.221,0.041,-0.084,-0.124,0.021,0.083,-0.104,0.13,0.07,0.104,0.119,0.152,0.022,0.004,-0.132,0.138
0.222,0.029,-0.085,-0.114,0.028,0.071,-0.099,0.142,0.076,0.108,0.126,0.158,0.026,0.001,-0.128,0.131
0.223,0.029,-0.084,-0.112,0.028,0.07,-0.098,0.142,0.075,0.108,0.124,0.155,0.025,0.001,-0.13,0.131
0.224,0.037,-0.079,-0.116,0.021,0.076,-0.097,0.138,0.079,0.112,0.126,0.157,0.028,0.004,-0.129,0.131
0.225,0.037,-0.078,-0.115,0.021,0.076,-0.097,0.138,0.082,0.113,0.127,0.157,0.029,0.005,-0.127,0.129
0.226,0.044,-0.073,-0.117,0.015,0.081,-0.096,0.135,0.081,0.113,0.129,0.157,0.03,0.009,-0.132,0.133
0.227,0.041,-0.07,-0.11,0.015,0.075,-0.09,0.139,0.086,0.115,0.131,0.162,0.034,0.009,-0.128,0.135
0.228,0.041,-0.068,-0.108,0.013,0.075,-0.088,0.142,0.086,0.114,0.131,0.161,0.033,0.007,-0.127,0.133
0.229,0.042,-0.066,-0.107,0.012,0.074,-0.086,0.142,0.086,0.115,0.134,0.165,0.036,0.009,-0.124,0.132
0.23,0.042,-0.066,-0.107,0.012,0.075,-0.086,0.141,0.085,0.113,0.13,0.166,0.037,0.011,-0.125,0.132
0.231,0.037,-0.07,-0.107,0.016,0.072,-0.088,0.134,0.078,0.107,0.121,0.158,0.029,0.007,-0.121,0.133
0.232,0.033,-0.076,-0.11,0.022,0.071,-0.093,0.133,0.076,0.105,0.12,0.156,0.026,0.006,-0.114,0.13
0.233,0.04,-0.077,-0.117,0.019,0.079,-0.098,0.134,0.077,0.107,0.123,0.157,0.026,0.008,-0.122,0.13
0.234,0.046,-0.074,-0.12,0.014,0.084,-0.098,0.133,0.079,0.108,0.125,0.159,0.028,0.01,-0.127,0.132
0.235,0.051,-0.069,-0.12,0.009,0.086,-0.095,0.132,0.078,0.109,0.127,0.161,0.03,0.013,-0.12,0.132
0.236,0.046,-0.074,-0.12,0.014,0.083,-0.097,0.13,0.078,0.108,0.124,0.16,0.029,0.011,-0.117,0.13
0.237,0.041,-0.081,-0.122,0.019,0.082,-0.102,0.13,0.077,0.107,0.123,0.158,0.026,0.012,-0.118,0.128
0.238,0.035,-0.084,-0.118,0.025,0.076,-0.101,0.132,0.075,0.104,0.12,0.154,0.022,0.007,-0.121,0.131
0.239,0.033,-0.087,-0.12,0.027,0.076,-0.103,0.129,0.072,0.103,0.117,0.153,0.021,0.006,-0.121,0.129
0.24,0.043,-0.082,-0.124,0.019,0.083,-0.103,0.129,0.076,0.107,0.125,0.158,0.025,0.011,-0.124,0.132
0.241,0.039,-0.081,-0.119,0.021,0.08,-0.1,0.131,0.082,0.111,0.129,0.16,0.029,0.01,-0.13,0.135
0.242,0.041,-0.074,-0.116,0.017,0.078,-0.095,0.135,0.086,0.115,0.135,0.165,0.034,0.011,-0.128,0.131
0.243,0.045,-0.069,-0.113,0.012,0.079,-0.091,0.138,0.088,0.117,0.138,0.167,0.035,0.011,-0.124,0.129
0.244,0.039,-0.07,-0.11,0.016,0.074,-0.09,0.137,0.086,0.117,0.137,0.168,0.034,0.011,-0.122,0.128
0.245,0.038,-0.073,-0.112,0.018,0.075,-0.093,0.135,0.087,0.115,0.136,0.165,0.032,0.012,-0.123,0.13
0.246,0.037,-0.073,-0.111,0.018,0.074,-0.092,0.135,0.084,0.113,0.135,0.165,0.031,0.011,-0.12,0.13
0.247,0.038,-0.072,-0.11,0.017,0.074,-0.091,0.138,0.086,0.115,0.138,0.169,0.035,0.011,-0.123,0.132
0.248,0.035,-0.07,-0.106,0.018,0.071,-0.088,0.143,0.088,0.117,0.142,0.171,0.04,0.011,-0.127,0.131
0.249,0.036,-0.066,-0.102,0.015,0.069,-0.084,0.144,0.091,0.12,0.145,0.174,0.043,0.012,-0.126,0.129
0.25,0.038,-0.07,-0.107,0.016,0.072,-0.088,0.137,0.09,0.117,0.142,0.173,0.042,0.013,-0.13,0.131
0.251,0.033,-0.073,-0.107,0.021,0.07,-0.09,0.137,0.085,0.113,0.134,0.17,0.038,0.013,-0.119,0.129
0.252,0.044,-0.068,-0.112,0.011,0.077,-0.089,0.136,0.083,0.112,0.133,0.169,0.037,0.016,-0.114,0.13
0.253,0.05,-0.069,-0.119,0.009,0.085,-0.093,0.134,0.084,0.113,0.135,0.169,0.036,0.017,-0.122,0.132
0.254,0.043,-0.074,-0.117,0.015,0.08,-0.096,0.132,0.084,0.113,0.134,0.17,0.035,0.016,-0.119,0.131
0.255,0.046,-0.071,-0.117,0.013,0.082,-0.094,0.129,0.082,0.112,0.136,0.17,0.038,0.018,-0.117,0.132
0.256,0.049,-0.07,-0.118,0.011,0.083,-0.094,0.131,0.084,0.115,0.138,0.172,0.038,0.019,-0.122,0.132
0.257,0.045,-0.071,-0.117,0.013,0.081,-0.095,0.134,0.085,0.113,0.137,0.172,0.036,0.021,-0.12,0.129
0.258,0.042,-0.076,-0.117,0.018,0.08,-0.097,0.134,0.078,0.105,0.129,0.166,0.029,0.017,-0.116,0.13
0.259,0.047,-0.076,-0.123,0.015,0.085,-0.1,0.127,0.076,0.104,0.124,0.164,0.028,0.017,-0.117,0.131
0.26,0.043,-0.075,-0.118,0.016,0.081,-0.097,0.13,0.08,0.108,0.131,0.168,0.032,0.017,-0.117,0.13
0.261,0.036,-0.076,-0.112,0.02,0.074,-0.094,0.135,0.082,0.112,0.135,0.171,0.037,0.013,-0.12,0.132
0.262,0.046,-0.066,-0.112,0.01,0.079,-0.089,0.134,0.085,0.114,0.139,0.175,0.042,0.018,-0.118,0.131
0.263,0.042,-0.061,-0.102,0.009,0.072,-0.082,0.138,0.088,0.115,0.141,0.176,0.043,0.015,-0.115,0.128
0.264,0.041,-0.066,-0.106,0.013,0.073,-0.086,0.136,0.084,0.112,0.136,0.172,0.04,0.013,-0.121,0.128
0.265,0.04,-0.07,-0.11,0.015,0.075,-0.09,0.136,0.08,0.107,0.132,0.169,0.037,0.013,-0.123,0.13
0.266,0.042,-0.065,-0.106,0.012,0.073,-0.086,0.129,0.08,0.11,0.133,0.171,0.04,0.015,-0.119,0.134
0.267,0.047,-0.059,-0.105,0.005,0.076,-0.082,0.127,0.082,0.111,0.138,0.173,0.043,0.018,-0.114,0.135
0.268,0.038,-0.059,-0.098,0.011,0.069,-0.079,0.142,0.086,0.115,0.142,0.177,0.045,0.017,-0.112,0.13
0.269,0.041,-0.051,-0.092,0.004,0.067,-0.071,0.143,0.09,0.12,0.149,0.182,0.051,0.019,-0.112,0.129
0.27,0.05,-0.045,-0.095,-0.003,0.072,-0.07,0.136,0.088,0.118,0.148,0.182,0.052,0.024,-0.111,0.131
0.271,0.055,-0.051,-0.106,-0.002,0.081,-0.079,0.128,0.08,0.108,0.136,0.175,0.046,0.025,-0.112,0.133
0.272,0.045,-0.059,-0.105,0.007,0.075,-0.082,0.127,0.073,0.102,0.13,0.17,0.04,0.018,-0.106,0.134
0.273,0.034,-0.067,-0.101,0.016,0.068,-0.084,0.127,0.074,0.102,0.13,0.17,0.04,0.017,-0.107,0.135
0.274,0.036,-0.066,-0.102,0.015,0.069,-0.084,0.132,0.077,0.102,0.131,0.172,0.043,0.02,-0.108,0.135
0.275,0.044,-0.062,-0.107,0.009,0.075,-0.085,0.13,0.076,0.102,0.132,0.173,0.046,0.022,-0.108,0.136
0.276,0.049,-0.064,-0.113,0.007,0.081,-0.088,0.121,0.074,0.102,0.131,0.17,0.044,0.022,-0.115,0.137
0.277,0.045,-0.067,-0.113,0.011,0.079,-0.09,0.129,0.07,0.099,0.129,0.167,0.038,0.02,-0.111,0.133
0.278,0.046,-0.068,-0.115,0.011,0.081,-0.091,0.124,0.071,0.097,0.128,0.167,0.041,0.022,-0.109,0.134
0.279,0.046,-0.071,-0.117,0.013,0.082,-0.095,0.117,0.07,0.096,0.125,0.165,0.039,0.022,-0.108,0.135
0.28,0.052,-0.067,-0.119,0.007,0.086,-0.093,0.123,0.068,0.097,0.126,0.166,0.04,0.022,-0.107,0.135
0.281,0.044,-0.069,-0.113,0.013,0.079,-0.091,0.127,0.07,0.099,0.13,0.169,0.044,0.021,-0.113,0.137
0.282,0.04,-0.067,-0.106,0.014,0.073,-0.086,0.13,0.075,0.102,0.136,0.175,0.05,0.024,-0.116,0.136
0.283,0.039,-0.064,-0.103,0.013,0.071,-0.084,0.133,0.079,0.104,0.137,0.177,0.051,0.025,-0.11,0.134
0.284,0.033,-0.07,-0.103,0.018,0.068,-0.086,0.134,0.073,0.101,0.131,0.172,0.045,0.019,-0.111,0.134
0.285,0.044,-0.068,-0.111,0.012,0.077,-0.089,0.136,0.078,0.103,0.134,0.175,0.048,0.022,-0.117,0.133
0.286,0.048,-0.065,-0.113,0.008,0.081,-0.088,0.131,0.073,0.101,0.132,0.175,0.047,0.024,-0.114,0.137
0.287,0.043,-0.061,-0.104,0.009,0.073,-0.083,0.133,0.072,0.1,0.135,0.176,0.049,0.021,-0.113,0.137
0.288,0.043,-0.058,-0.1,0.007,0.071,-0.079,0.136,0.079,0.105,0.14,0.178,0.053,0.023,-0.113,0.135
0.289,0.041,-0.057,-0.098,0.009,0.069,-0.077,0.134,0.075,0.102,0.138,0.176,0.051,0.021,-0.112,0.137
0.29,0.045,-0.054,-0.1,0.005,0.072,-0.077,0.133,0.076,0.102,0.135,0.175,0.049,0.02,-0.112,0.135
0.291,0.051,-0.052,-0.103,0.001,0.077,-0.078,0.126,0.069,0.097,0.128,0.172,0.044,0.022,-0.105,0.134
0.292,0.049,-0.052,-0.101,0.002,0.075,-0.077,0.122,0.066,0.092,0.123,0.17,0.041,0.02,-0.099,0.134
0.293,0.049,-0.053,-0.102,0.002,0.075,-0.077,0.12,0.068,0.096,0.127,0.173,0.044,0.022,-0.104,0.136
0.294,0.047,-0.055,-0.102,0.004,0.074,-0.079,0.127,0.065,0.094,0.127,0.172,0.043,0.021,-0.108,0.137
0.295,0.047,-0.054,-0.101,0.004,0.074,-0.077,0.128,0.064,0.092,0.125,0.169,0.041,0.018,-0.103,0.135
0.296,0.048,-0.056,-0.103,0.004,0.076,-0.08,0.122,0.062,0.092,0.123,0.168,0.041,0.019,-0.105,0.135
0.297,0.044,-0.06,-0.104,0.008,0.074,-0.082,0.118,0.06,0.091,0.121,0.169,0.039,0.02,-0.102,0.133
0.298,0.05,-0.059,-0.108,0.005,0.079,-0.084,0.114,0.058,0.089,0.121,0.168,0.038,0.022,-0.102,0.136
0.299,0.056,-0.059,-0.115,0.002,0.085,-0.087,0.113,0.05,0.082,0.114,0.162,0.036,0.021,-0.104,0.138
0.3,0.051,-0.061,-0.112,0.005,0.081,-0.086,0.114,0.057,0.086,0.118,0.164,0.039,0.02,-0.099,0.136
0.301,0.054,-0.054,-0.108,0,0.082,-0.081,0.122,0.07,0.095,0.131,0.173,0.048,0.021,-0.104,0.137
0.302,0.045,-0.054,-0.1,0.004,0.072,-0.076,0.127,0.069,0.097,0.133,0.176,0.05,0.018,-0.109,0.136
0.303,0.04,-0.057,-0.097,0.009,0.068,-0.076,0.126,0.064,0.093,0.129,0.171,0.046,0.015,-0.108,0.134
0.304,0.046,-0.052,-0.099,0.004,0.072,-0.075,0.124,0.066,0.093,0.131,0.173,0.046,0.017,-0.104,0.134
0.305,0.042,-0.057,-0.099,0.008,0.07,-0.077,0.123,0.065,0.092,0.129,0.171,0.045,0.015,-0.107,0.135
0.306,0.042,-0.057,-0.099,0.007,0.07,-0.077,0.124,0.064,0.091,0.128,0.171,0.046,0.013,-0.107,0.135
0.307,0.035,-0.056,-0.09,0.01,0.062,-0.073,0.129,0.067,0.095,0.131,0.173,0.051,0.015,-0.105,0.136
0.308,0.034,-0.057,-0.09,0.012,0.062,-0.074,0.129,0.063,0.094,0.128,0.171,0.046,0.013,-0.111,0.138
0.309,0.038,-0.051,-0.089,0.006,0.064,-0.07,0.133,0.066,0.098,0.134,0.177,0.049,0.016,-0.112,0.136
0.31,0.04,-0.052,-0.091,0.006,0.065,-0.071,0.13,0.064,0.095,0.129,0.172,0.046,0.015,-0.11,0.136
0.311,0.039,-0.057,-0.096,0.009,0.068,-0.076,0.124,0.06,0.09,0.121,0.166,0.038,0.013,-0.103,0.136
0.312,0.041,-0.054,-0.096,0.006,0.068,-0.075,0.124,0.058,0.088,0.122,0.166,0.04,0.015,-0.099,0.136
0.313,0.043,-0.057,-0.101,0.006,0.072,-0.079,0.119,0.052,0.084,0.12,0.167,0.038,0.013,-0.102,0.139
0.314,0.045,-0.059,-0.104,0.007,0.074,-0.082,0.12,0.057,0.085,0.121,0.167,0.037,0.011,-0.106,0.139
0.315,0.038,-0.064,-0.102,0.013,0.07,-0.083,0.117,0.054,0.083,0.117,0.161,0.035,0.01,-0.108,0.142
0.316,0.038,-0.066,-0.104,0.013,0.071,-0.085,0.121,0.053,0.083,0.117,0.163,0.035,0.011,-0.111,0.141
0.317,0.05,-0.062,-0.112,0.006,0.081,-0.087,0.12,0.053,0.081,0.116,0.162,0.035,0.013,-0.11,0.137
0.318,0.042,-0.07,-0.111,0.014,0.076,-0.09,0.11,0.049,0.076,0.111,0.159,0.03,0.011,-0.106,0.14
0.319,0.037,-0.07,-0.108,0.017,0.073,-0.089,0.116,0.051,0.077,0.111,0.158,0.029,0.011,-0.104,0.138
0.32,0.037,-0.073,-0.111,0.018,0.074,-0.092,0.116,0.047,0.075,0.111,0.157,0.031,0.011,-0.108,0.139
0.321,0.031,-0.074,-0.105,0.021,0.068,-0.089,0.123,0.051,0.082,0.118,0.163,0.037,0.01,-0.11,0.139
0.322,0.037,-0.068,-0.105,0.015,0.071,-0.086,0.126,0.054,0.086,0.123,0.165,0.042,0.011,-0.109,0.138
0.323,0.04,-0.066,-0.105,0.013,0.072,-0.086,0.123,0.055,0.085,0.123,0.167,0.042,0.013,-0.11,0.139
0.324,0.038,-0.065,-0.102,0.013,0.07,-0.083,0.125,0.053,0.085,0.121,0.166,0.04,0.012,-0.113,0.139
0.325,0.032,-0.07,-0.102,0.019,0.068,-0.086,0.123,0.051,0.082,0.121,0.165,0.041,0.012,-0.116,0.138
0.326,0.03,-0.072,-0.103,0.021,0.067,-0.087,0.127,0.054,0.083,0.121,0.165,0.041,0.009,-0.115,0.137
0.327,0.04,-0.069,-0.108,0.015,0.074,-0.088,0.126,0.053,0.084,0.122,0.165,0.042,0.007,-0.119,0.139
0.328,0.029,-0.071,-0.101,0.021,0.065,-0.086,0.132,0.061,0.088,0.127,0.17,0.043,0.005,-0.116,0.136
0.329,0.028,-0.07,-0.099,0.021,0.063,-0.085,0.137,0.062,0.091,0.128,0.17,0.044,0.006,-0.12,0.137
0.33,0.032,-0.069,-0.101,0.018,0.066,-0.085,0.133,0.059,0.089,0.128,0.171,0.044,0.009,-0.121,0.138
0.331,0.019,-0.077,-0.097,0.029,0.059,-0.087,0.129,0.056,0.084,0.119,0.167,0.038,0.007,-0.112,0.134
0.332,0.025,-0.076,-0.102,0.025,0.064,-0.089,0.128,0.051,0.081,0.114,0.161,0.033,0.006,-0.11,0.135
0.333,0.035,-0.072,-0.108,0.018,0.072,-0.09,0.121,0.051,0.081,0.115,0.161,0.035,0.005,-0.113,0.139
0.334,0.034,-0.076,-0.11,0.021,0.072,-0.093,0.121,0.049,0.08,0.116,0.162,0.035,0.005,-0.117,0.14
0.335,0.04,-0.07,-0.111,0.015,0.075,-0.09,0.123,0.049,0.08,0.117,0.163,0.036,0.006,-0.116,0.141
0.336,0.044,-0.071,-0.116,0.013,0.08,-0.093,0.119,0.051,0.079,0.114,0.161,0.033,0.007,-0.118,0.141
0.337,0.032,-0.084,-0.115,0.026,0.073,-0.099,0.118,0.046,0.073,0.107,0.155,0.026,0.004,-0.119,0.138
0.338,0.032,-0.084,-0.116,0.026,0.074,-0.1,0.116,0.042,0.068,0.102,0.152,0.024,0.002,-0.116,0.139
0.339,0.034,-0.085,-0.118,0.025,0.076,-0.102,0.114,0.038,0.066,0.1,0.149,0.021,0.002,-0.116,0.141
0.34,0.035,-0.085,-0.12,0.025,0.077,-0.102,0.116,0.038,0.068,0.102,0.147,0.021,0,-0.117,0.143
0.341,0.035,-0.08,-0.116,0.022,0.075,-0.098,0.127,0.046,0.071,0.11,0.153,0.026,-0.001,-0.124,0.141
0.342,0.031,-0.081,-0.111,0.025,0.071,-0.096,0.124,0.048,0.075,0.114,0.157,0.03,-0.001,-0.122,0.141
0.343,0.034,-0.081,-0.115,0.023,0.074,-0.098,0.122,0.044,0.074,0.11,0.155,0.029,-0.001,-0.117,0.141
0.344,0.035,-0.076,-0.112,0.021,0.073,-0.094,0.135,0.051,0.077,0.112,0.156,0.03,-0.001,-0.121,0.137
0.345,0.034,-0.078,-0.112,0.022,0.073,-0.095,0.132,0.048,0.078,0.113,0.156,0.029,-0.003,-0.124,0.139
0.346,0.029,-0.08,-0.109,0.025,0.069,-0.095,0.128,0.045,0.077,0.114,0.157,0.028,-0.004,-0.119,0.14
0.347,0.033,-0.076,-0.108,0.021,0.071,-0.092,0.134,0.05,0.082,0.117,0.159,0.031,-0.002,-0.121,0.141
0.348,0.034,-0.075,-0.109,0.021,0.071,-0.092,0.133,0.052,0.082,0.117,0.16,0.032,-0.002,-0.128,0.141
0.349,0.035,-0.073,-0.108,0.019,0.071,-0.091,0.132,0.053,0.085,0.12,0.162,0.033,-0.001,-0.127,0.139
0.35,0.034,-0.075,-0.109,0.021,0.071,-0.092,0.133,0.051,0.084,0.118,0.161,0.034,0.001,-0.123,0.14
0.351,0.035,-0.079,-0.114,0.022,0.074,-0.097,0.128,0.045,0.078,0.112,0.158,0.029,0,-0.119,0.14
0.352,0.035,-0.084,-0.119,0.024,0.077,-0.102,0.126,0.041,0.072,0.105,0.151,0.021,-0.003,-0.122,0.141
0.353,0.037,-0.082,-0.119,0.022,0.078,-0.101,0.129,0.043,0.07,0.104,0.15,0.022,-0.004,-0.123,0.143
0.354,0.037,-0.086,-0.123,0.025,0.081,-0.105,0.126,0.042,0.071,0.104,0.149,0.023,-0.003,-0.124,0.143
0.355,0.032,-0.091,-0.123,0.029,0.078,-0.107,0.124,0.04,0.07,0.104,0.15,0.024,-0.003,-0.126,0.142
0.356,0.037,-0.089,-0.127,0.026,0.082,-0.108,0.127,0.039,0.072,0.107,0.151,0.026,-0.002,-0.129,0.141
0.357,0.033,-0.096,-0.129,0.032,0.081,-0.112,0.126,0.038,0.07,0.103,0.147,0.023,-0.005,-0.127,0.14
0.358,0.032,-0.098,-0.13,0.034,0.081,-0.114,0.12,0.038,0.069,0.101,0.145,0.018,-0.006,-0.124,0.141
0.359,0.033,-0.102,-0.135,0.035,0.084,-0.119,0.118,0.033,0.064,0.096,0.144,0.016,-0.005,-0.13,0.141
0.36,0.034,-0.101,-0.135,0.034,0.084,-0.117,0.123,0.034,0.066,0.1,0.148,0.019,-0.005,-0.129,0.141
0.361,0.035,-0.095,-0.13,0.03,0.082,-0.113,0.13,0.041,0.072,0.108,0.152,0.024,-0.006,-0.133,0.141
0.362,0.032,-0.094,-0.126,0.031,0.079,-0.11,0.134,0.048,0.076,0.112,0.154,0.026,-0.007,-0.135,0.141
0.363,0.024,-0.099,-0.122,0.037,0.073,-0.111,0.134,0.043,0.07,0.106,0.149,0.022,-0.013,-0.132,0.141
0.364,0.031,-0.095,-0.126,0.032,0.079,-0.111,0.13,0.042,0.069,0.104,0.146,0.021,-0.012,-0.134,0.141
0.365,0.037,-0.091,-0.129,0.027,0.083,-0.11,0.131,0.044,0.072,0.106,0.15,0.021,-0.011,-0.133,0.139
0.366,0.026,-0.094,-0.119,0.034,0.072,-0.106,0.134,0.044,0.072,0.107,0.151,0.021,-0.016,-0.135,0.137
0.367,0.032,-0.089,-0.12,0.029,0.076,-0.104,0.132,0.051,0.078,0.114,0.154,0.025,-0.013,-0.137,0.139
0.368,0.033,-0.089,-0.121,0.028,0.076,-0.105,0.137,0.051,0.077,0.114,0.154,0.025,-0.015,-0.136,0.139
0.369,0.028,-0.088,-0.115,0.03,0.071,-0.102,0.141,0.051,0.081,0.115,0.155,0.028,-0.013,-0.137,0.14
0.37,0.028,-0.089,-0.117,0.031,0.072,-0.103,0.135,0.05,0.078,0.114,0.153,0.029,-0.013,-0.134,0.14
0.371,0.032,-0.09,-0.121,0.029,0.076,-0.106,0.133,0.044,0.071,0.106,0.15,0.024,-0.011,-0.128,0.138
0.372,0.032,-0.093,-0.126,0.031,0.079,-0.11,0.129,0.043,0.073,0.107,0.151,0.023,-0.007,-0.123,0.137
0.373,0.027,-0.092,-0.118,0.033,0.072,-0.105,0.133,0.046,0.078,0.112,0.154,0.027,-0.009,-0.125,0.138
0.374,0.032,-0.087,-0.119,0.028,0.075,-0.103,0.134,0.047,0.079,0.111,0.154,0.026,-0.009,-0.128,0.139
0.375,0.032,-0.088,-0.12,0.028,0.076,-0.104,0.134,0.049,0.077,0.11,0.151,0.024,-0.011,-0.12,0.137
0.376,0.035,-0.082,-0.117,0.024,0.075,-0.099,0.14,0.051,0.083,0.115,0.154,0.026,-0.008,-0.117,0.135
0.377,0.039,-0.081,-0.12,0.021,0.08,-0.101,0.137,0.052,0.085,0.114,0.155,0.029,-0.002,-0.117,0.131
0.378,0.043,-0.076,-0.119,0.017,0.081,-0.098,0.139,0.055,0.087,0.116,0.159,0.03,0.001,-0.111,0.131
0.379,0.044,-0.073,-0.117,0.015,0.081,-0.096,0.138,0.057,0.089,0.119,0.164,0.034,0.003,-0.105,0.13
0.38,0.038,-0.075,-0.113,0.018,0.075,-0.094,0.141,0.062,0.093,0.123,0.165,0.036,0.001,-0.103,0.127
0.381,0.042,-0.067,-0.108,0.013,0.074,-0.087,0.151,0.07,0.103,0.133,0.169,0.04,-0.002,-0.106,0.127
0.382,0.041,-0.061,-0.102,0.01,0.071,-0.082,0.153,0.074,0.108,0.137,0.172,0.042,-0.002,-0.105,0.127
0.383,0.036,-0.059,-0.095,0.011,0.066,-0.076,0.157,0.075,0.111,0.138,0.174,0.043,-0.003,-0.097,0.122
0.384,0.036,-0.057,-0.092,0.01,0.065,-0.074,0.16,0.079,0.111,0.14,0.176,0.048,0,-0.091,0.121
0.385,0.036,-0.058,-0.094,0.011,0.065,-0.075,0.159,0.079,0.111,0.139,0.175,0.046,0,-0.097,0.122
0.386,0.037,-0.055,-0.092,0.009,0.065,-0.073,0.157,0.075,0.11,0.138,0.173,0.045,-0.001,-0.096,0.124
0.387,0.043,-0.049,-0.092,0.003,0.068,-0.07,0.161,0.077,0.111,0.141,0.178,0.051,0.002,-0.096,0.127
0.388,0.041,-0.051,-0.091,0.004,0.067,-0.071,0.164,0.078,0.112,0.143,0.177,0.049,-0.002,-0.102,0.126
0.389,0.038,-0.047,-0.085,0.004,0.062,-0.066,0.167,0.079,0.115,0.146,0.178,0.05,-0.002,-0.096,0.123
0.39,0.037,-0.043,-0.08,0.003,0.059,-0.061,0.172,0.082,0.118,0.146,0.18,0.051,-0.001,-0.089,0.119
0.391,0.04,-0.044,-0.084,0.003,0.061,-0.064,0.164,0.075,0.112,0.137,0.173,0.044,-0.004,-0.087,0.119
0.392,0.041,-0.05,-0.09,0.004,0.065,-0.07,0.158,0.068,0.105,0.131,0.17,0.039,-0.004,-0.083,0.121
0.393,0.038,-0.047,-0.085,0.004,0.061,-0.066,0.159,0.068,0.103,0.132,0.171,0.039,-0.004,-0.081,0.12
0.394,0.044,-0.037,-0.082,-0.004,0.064,-0.06,0.158,0.067,0.105,0.133,0.171,0.042,-0.003,-0.079,0.12
0.395,0.042,-0.036,-0.078,-0.003,0.06,-0.057,0.163,0.07,0.107,0.136,0.172,0.044,-0.001,-0.07,0.118
0.396,0.038,-0.035,-0.073,-0.002,0.056,-0.054,0.168,0.076,0.111,0.139,0.173,0.043,-0.004,-0.068,0.114
0.397,0.039,-0.034,-0.073,-0.003,0.056,-0.053,0.17,0.08,0.114,0.139,0.174,0.044,-0.003,-0.069,0.109
0.398,0.035,-0.033,-0.068,-0.001,0.051,-0.051,0.167,0.08,0.114,0.138,0.172,0.043,-0.003,-0.066,0.108
0.399,0.036,-0.035,-0.071,0,0.053,-0.053,0.164,0.08,0.115,0.137,0.171,0.04,-0.005,-0.061,0.108
0.4,0.041,-0.027,-0.068,-0.006,0.054,-0.048,0.169,0.087,0.122,0.145,0.178,0.047,0,-0.061,0.107
0.401,0.044,-0.015,-0.06,-0.015,0.052,-0.037,0.174,0.093,0.13,0.153,0.184,0.052,-0.001,-0.06,0.106
0.402,0.046,-0.009,-0.055,-0.019,0.051,-0.032,0.173,0.099,0.137,0.159,0.188,0.055,-0.002,-0.052,0.104
0.403,0.043,-0.004,-0.046,-0.019,0.044,-0.025,0.178,0.099,0.14,0.161,0.188,0.056,0.001,-0.05,0.101
0.404,0.04,-0.002,-0.042,-0.019,0.041,-0.022,0.185,0.104,0.141,0.161,0.188,0.056,0.001,-0.049,0.098
0.405,0.043,-0.001,-0.044,-0.021,0.043,-0.023,0.184,0.108,0.144,0.164,0.19,0.057,0.002,-0.051,0.096
0.406,0.044,0.002,-0.042,-0.023,0.043,-0.02,0.184,0.106,0.146,0.167,0.191,0.059,0.002,-0.048,0.098
0.407,0.048,0.011,-0.037,-0.029,0.043,-0.013,0.181,0.108,0.15,0.172,0.196,0.066,0.004,-0.043,0.102
0.408,0.046,0.011,-0.035,-0.029,0.041,-0.011,0.175,0.105,0.149,0.174,0.198,0.068,0.006,-0.048,0.103
0.409,0.042,0.009,-0.033,-0.025,0.037,-0.012,0.176,0.097,0.143,0.171,0.195,0.067,0.004,-0.047,0.107
0.41,0.045,0.009,-0.035,-0.028,0.04,-0.013,0.174,0.098,0.143,0.169,0.197,0.064,0.005,-0.046,0.11
0.411,0.048,0.01,-0.038,-0.029,0.043,-0.014,0.167,0.097,0.141,0.167,0.196,0.062,0.009,-0.043,0.111
0.412,0.055,0.011,-0.044,-0.033,0.05,-0.017,0.157,0.086,0.132,0.159,0.191,0.061,0.013,-0.04,0.117
0.413,0.059,0.011,-0.049,-0.035,0.054,-0.019,0.148,0.084,0.13,0.157,0.192,0.059,0.013,-0.041,0.12
0.414,0.06,0.011,-0.05,-0.035,0.056,-0.02,0.15,0.088,0.132,0.159,0.193,0.06,0.011,-0.04,0.118
0.415,0.065,0.015,-0.051,-0.04,0.058,-0.018,0.151,0.092,0.134,0.159,0.194,0.062,0.013,-0.042,0.119
0.416,0.053,0.005,-0.049,-0.029,0.051,-0.022,0.145,0.088,0.133,0.159,0.193,0.063,0.012,-0.041,0.118
0.417,0.052,0.001,-0.052,-0.026,0.052,-0.026,0.139,0.078,0.126,0.151,0.186,0.057,0.01,-0.041,0.121
0.418,0.064,0.004,-0.059,-0.034,0.061,-0.028,0.134,0.071,0.124,0.148,0.185,0.055,0.011,-0.043,0.128
0.419,0.065,-0.003,-0.068,-0.031,0.067,-0.035,0.13,0.064,0.118,0.144,0.183,0.054,0.012,-0.044,0.131
0.42,0.068,-0.006,-0.074,-0.03,0.071,-0.041,0.128,0.057,0.113,0.139,0.18,0.051,0.009,-0.05,0.136
0.421,0.058,-0.013,-0.07,-0.022,0.064,-0.042,0.131,0.06,0.115,0.146,0.184,0.054,0.007,-0.056,0.137
0.422,0.049,-0.015,-0.064,-0.017,0.056,-0.04,0.135,0.065,0.118,0.15,0.188,0.058,0.007,-0.059,0.136
0.423,0.057,-0.009,-0.066,-0.024,0.061,-0.037,0.133,0.064,0.117,0.149,0.189,0.059,0.01,-0.059,0.137
0.424,0.059,-0.007,-0.066,-0.025,0.062,-0.036,0.133,0.063,0.115,0.147,0.186,0.059,0.009,-0.058,0.138
0.425,0.056,-0.011,-0.067,-0.023,0.061,-0.038,0.131,0.06,0.112,0.144,0.183,0.059,0.01,-0.065,0.14
0.426,0.06,-0.013,-0.074,-0.023,0.067,-0.043,0.128,0.057,0.106,0.141,0.183,0.059,0.011,-0.07,0.143
0.427,0.068,-0.009,-0.077,-0.029,0.072,-0.043,0.134,0.063,0.111,0.147,0.188,0.063,0.012,-0.07,0.143
0.428,0.07,-0.004,-0.074,-0.033,0.072,-0.04,0.137,0.065,0.112,0.15,0.192,0.066,0.015,-0.07,0.142
0.429,0.068,-0.002,-0.07,-0.033,0.069,-0.036,0.13,0.065,0.111,0.15,0.192,0.067,0.015,-0.066,0.143
0.43,0.067,-0.002,-0.069,-0.033,0.068,-0.035,0.133,0.062,0.108,0.148,0.188,0.064,0.014,-0.062,0.14
0.431,0.059,-0.008,-0.067,-0.025,0.063,-0.037,0.137,0.052,0.1,0.137,0.18,0.055,0.007,-0.053,0.135
0.432,0.062,-0.013,-0.075,-0.025,0.069,-0.044,0.126,0.053,0.099,0.136,0.179,0.053,0.009,-0.057,0.137
0.433,0.068,-0.017,-0.085,-0.026,0.076,-0.051,0.127,0.048,0.097,0.134,0.177,0.053,0.012,-0.067,0.14
0.434,0.056,-0.024,-0.08,-0.017,0.068,-0.051,0.132,0.048,0.097,0.135,0.179,0.053,0.009,-0.069,0.141
0.435,0.059,-0.027,-0.086,-0.017,0.073,-0.057,0.121,0.047,0.095,0.136,0.179,0.052,0.013,-0.072,0.145
0.436,0.067,-0.032,-0.099,-0.017,0.083,-0.065,0.122,0.043,0.09,0.13,0.175,0.05,0.012,-0.077,0.143
0.437,0.067,-0.041,-0.108,-0.013,0.087,-0.074,0.121,0.043,0.086,0.125,0.169,0.046,0.011,-0.086,0.143
0.438,0.063,-0.05,-0.113,-0.007,0.088,-0.081,0.117,0.039,0.082,0.12,0.165,0.04,0.009,-0.086,0.145
0.439,0.059,-0.055,-0.114,-0.002,0.086,-0.085,0.117,0.04,0.083,0.12,0.168,0.043,0.012,-0.082,0.144
0.44,0.063,-0.057,-0.119,-0.004,0.091,-0.088,0.121,0.04,0.085,0.123,0.17,0.043,0.016,-0.087,0.144
0.441,0.064,-0.054,-0.118,-0.004,0.09,-0.086,0.128,0.047,0.095,0.135,0.174,0.049,0.014,-0.09,0.145
0.442,0.058,-0.058,-0.116,0,0.087,-0.087,0.13,0.052,0.099,0.139,0.177,0.053,0.014,-0.099,0.146
0.443,0.05,-0.06,-0.11,0.005,0.08,-0.085,0.134,0.052,0.098,0.136,0.176,0.049,0.011,-0.102,0.144
0.444,0.046,-0.061,-0.107,0.007,0.076,-0.084,0.134,0.051,0.1,0.136,0.176,0.051,0.013,-0.097,0.144
0.445,0.043,-0.07,-0.113,0.013,0.078,-0.091,0.13,0.049,0.095,0.133,0.172,0.049,0.014,-0.101,0.145
0.446,0.05,-0.07,-0.119,0.01,0.084,-0.094,0.129,0.051,0.094,0.133,0.172,0.046,0.013,-0.104,0.146
0.447,0.057,-0.065,-0.121,0.004,0.089,-0.093,0.134,0.054,0.095,0.138,0.174,0.051,0.015,-0.104,0.148
0.448,0.047,-0.072,-0.119,0.013,0.083,-0.096,0.14,0.057,0.096,0.14,0.176,0.052,0.011,-0.111,0.144
0.449,0.045,-0.075,-0.121,0.015,0.083,-0.098,0.138,0.054,0.093,0.139,0.177,0.053,0.01,-0.117,0.145
0.45,0.046,-0.079,-0.125,0.016,0.086,-0.102,0.137,0.051,0.089,0.134,0.173,0.049,0.009,-0.119,0.142
0.451,0.046,-0.082,-0.128,0.018,0.087,-0.104,0.136,0.051,0.086,0.127,0.168,0.041,0.006,-0.115,0.138
0.452,0.043,-0.081,-0.124,0.019,0.084,-0.102,0.136,0.056,0.089,0.128,0.169,0.039,0.007,-0.108,0.134
0.453,0.041,-0.084,-0.126,0.021,0.084,-0.104,0.138,0.058,0.093,0.131,0.168,0.038,0.004,-0.112,0.13
0.454,0.042,-0.086,-0.128,0.022,0.085,-0.106,0.141,0.06,0.097,0.135,0.169,0.037,0.002,-0.115,0.128
0.455,0.043,-0.084,-0.126,0.021,0.084,-0.105,0.142,0.06,0.095,0.133,0.17,0.035,0.001,-0.116,0.128
0.456,0.043,-0.092,-0.135,0.025,0.089,-0.114,0.138,0.054,0.09,0.127,0.162,0.029,-0.002,-0.118,0.13
0.457,0.032,-0.105,-0.137,0.037,0.085,-0.121,0.139,0.051,0.086,0.121,0.155,0.022,-0.006,-0.121,0.126
0.458,0.039,-0.102,-0.141,0.032,0.089,-0.121,0.135,0.046,0.082,0.117,0.153,0.021,-0.006,-0.12,0.127
0.459,0.034,-0.113,-0.146,0.04,0.09,-0.13,0.135,0.043,0.076,0.112,0.148,0.015,-0.009,-0.126,0.128
0.46,0.021,-0.125,-0.146,0.051,0.084,-0.136,0.142,0.044,0.072,0.108,0.144,0.011,-0.016,-0.137,0.128
0.461,0.025,-0.121,-0.145,0.048,0.085,-0.133,0.144,0.048,0.075,0.113,0.148,0.015,-0.018,-0.141,0.13
0.462,0.022,-0.119,-0.141,0.049,0.082,-0.131,0.147,0.048,0.075,0.114,0.149,0.015,-0.021,-0.146,0.129
0.463,0.013,-0.125,-0.139,0.056,0.076,-0.132,0.15,0.045,0.072,0.11,0.144,0.009,-0.029,-0.146,0.126
0.464,0.011,-0.127,-0.137,0.058,0.074,-0.132,0.15,0.044,0.072,0.108,0.143,0.009,-0.031,-0.145,0.126
0.465,0.017,-0.125,-0.141,0.054,0.079,-0.133,0.146,0.045,0.071,0.11,0.143,0.01,-0.028,-0.149,0.128
0.466,0.017,-0.131,-0.147,0.058,0.082,-0.139,0.142,0.043,0.067,0.105,0.14,0.005,-0.03,-0.153,0.132
0.467,0.021,-0.127,-0.146,0.053,0.084,-0.137,0.147,0.041,0.07,0.107,0.143,0.009,-0.029,-0.157,0.134
0.468,0.015,-0.131,-0.146,0.059,0.08,-0.139,0.147,0.044,0.07,0.109,0.145,0.011,-0.03,-0.163,0.134
0.469,0.007,-0.135,-0.142,0.064,0.075,-0.139,0.15,0.042,0.07,0.107,0.143,0.011,-0.034,-0.162,0.134
0.47,0.008,-0.132,-0.14,0.062,0.074,-0.136,0.155,0.04,0.07,0.107,0.142,0.012,-0.035,-0.158,0.132
0.471,0.014,-0.136,-0.15,0.061,0.082,-0.143,0.15,0.036,0.061,0.098,0.136,0.005,-0.036,-0.155,0.133
0.472,0.015,-0.138,-0.153,0.061,0.085,-0.146,0.149,0.033,0.058,0.091,0.132,0.001,-0.035,-0.155,0.132
0.473,0.011,-0.146,-0.157,0.068,0.084,-0.151,0.147,0.032,0.058,0.091,0.132,0,-0.038,-0.164,0.134
0.474,0.015,-0.149,-0.164,0.067,0.089,-0.157,0.144,0.028,0.053,0.087,0.13,-0.002,-0.041,-0.165,0.137
0.475,0.018,-0.143,-0.161,0.062,0.089,-0.152,0.143,0.025,0.05,0.085,0.128,-0.002,-0.042,-0.163,0.14
0.476,0.006,-0.154,-0.161,0.074,0.084,-0.157,0.142,0.024,0.05,0.085,0.128,-0.003,-0.041,-0.165,0.139
0.477,0,-0.167,-0.167,0.084,0.084,-0.167,0.14,0.021,0.048,0.081,0.123,-0.007,-0.041,-0.165,0.137
0.478,0.013,-0.159,-0.171,0.073,0.092,-0.165,0.139,0.018,0.043,0.076,0.12,-0.011,-0.039,-0.167,0.14
0.479,0.017,-0.16,-0.177,0.071,0.097,-0.168,0.132,0.013,0.04,0.074,0.117,-0.015,-0.04,-0.165,0.142
0.48,0.013,-0.164,-0.177,0.075,0.096,-0.171,0.132,0.018,0.041,0.077,0.117,-0.013,-0.041,-0.166,0.141
0.481,0.015,-0.159,-0.174,0.072,0.095,-0.166,0.139,0.025,0.045,0.084,0.123,-0.009,-0.041,-0.175,0.141
0.482,0.011,-0.159,-0.17,0.074,0.09,-0.164,0.144,0.027,0.049,0.086,0.125,-0.009,-0.045,-0.177,0.14
0.483,0.002,-0.161,-0.162,0.08,0.082,-0.162,0.144,0.023,0.046,0.083,0.122,-0.013,-0.05,-0.169,0.137
0.484,0.007,-0.157,-0.164,0.075,0.085,-0.161,0.141,0.02,0.044,0.083,0.122,-0.014,-0.049,-0.169,0.136
0.485,0.006,-0.157,-0.163,0.075,0.085,-0.16,0.145,0.026,0.048,0.085,0.124,-0.012,-0.048,-0.169,0.136
0.486,0.002,-0.157,-0.159,0.077,0.08,-0.158,0.145,0.025,0.045,0.082,0.12,-0.013,-0.049,-0.167,0.137
0.487,0.009,-0.154,-0.163,0.073,0.086,-0.159,0.145,0.021,0.043,0.083,0.121,-0.011,-0.049,-0.172,0.141
0.488,0.006,-0.153,-0.16,0.073,0.083,-0.156,0.148,0.024,0.047,0.089,0.126,-0.006,-0.046,-0.176,0.141
0.489,0.002,-0.152,-0.153,0.075,0.078,-0.153,0.15,0.032,0.051,0.091,0.128,-0.005,-0.049,-0.172,0.138
0.49,0.009,-0.15,-0.158,0.071,0.084,-0.154,0.148,0.029,0.048,0.086,0.127,-0.006,-0.049,-0.176,0.139
0.491,0.011,-0.153,-0.164,0.071,0.087,-0.159,0.14,0.022,0.044,0.08,0.122,-0.009,-0.044,-0.176,0.14
0.492,0.005,-0.16,-0.166,0.077,0.086,-0.163,0.146,0.019,0.042,0.075,0.118,-0.012,-0.047,-0.167,0.138
0.493,0,-0.169,-0.169,0.085,0.085,-0.169,0.147,0.018,0.039,0.074,0.116,-0.014,-0.051,-0.173,0.136
0.494,-0.002,-0.173,-0.172,0.087,0.085,-0.172,0.141,0.019,0.04,0.076,0.117,-0.015,-0.05,-0.183,0.138
0.495,-0.001,-0.165,-0.164,0.083,0.082,-0.164,0.145,0.019,0.043,0.078,0.121,-0.01,-0.05,-0.173,0.138
0.496,-0.002,-0.165,-0.163,0.083,0.081,-0.164,0.145,0.021,0.043,0.077,0.118,-0.013,-0.051,-0.171,0.136
0.497,-0.006,-0.174,-0.168,0.09,0.081,-0.171,0.143,0.016,0.038,0.071,0.112,-0.021,-0.052,-0.177,0.136
0.498,-0.006,-0.175,-0.17,0.091,0.082,-0.172,0.141,0.015,0.038,0.07,0.113,-0.021,-0.051,-0.175,0.134
0.499,-0.004,-0.176,-0.171,0.09,0.084,-0.173,0.143,0.015,0.038,0.07,0.113,-0.022,-0.053,-0.17,0.132
0.5,-0.012,-0.182,-0.171,0.098,0.079,-0.176,0.145,0.017,0.037,0.072,0.115,-0.021,-0.055,-0.175,0.134
0.501,-0.002,-0.175,-0.173,0.088,0.086,-0.174,0.149,0.023,0.043,0.081,0.119,-0.015,-0.052,-0.18,0.135
0.502,0.003,-0.168,-0.171,0.083,0.086,-0.169,0.154,0.025,0.044,0.085,0.121,-0.013,-0.052,-0.182,0.135
0.503,-0.007,-0.173,-0.166,0.09,0.08,-0.17,0.154,0.024,0.043,0.081,0.12,-0.013,-0.051,-0.183,0.135
0.504,-0.017,-0.178,-0.162,0.098,0.072,-0.17,0.155,0.022,0.043,0.077,0.117,-0.016,-0.057,-0.179,0.132
0.505,-0.016,-0.179,-0.164,0.098,0.073,-0.172,0.153,0.021,0.042,0.078,0.116,-0.016,-0.058,-0.18,0.13
0.506,-0.005,-0.175,-0.17,0.09,0.083,-0.172,0.149,0.021,0.042,0.08,0.117,-0.015,-0.052,-0.183,0.135
0.507,-0.011,-0.174,-0.164,0.092,0.076,-0.169,0.153,0.025,0.044,0.083,0.118,-0.013,-0.054,-0.183,0.136
0.508,-0.012,-0.173,-0.161,0.092,0.074,-0.167,0.159,0.028,0.047,0.086,0.122,-0.011,-0.055,-0.183,0.133
0.509,-0.006,-0.17,-0.164,0.088,0.079,-0.167,0.159,0.028,0.047,0.086,0.12,-0.011,-0.055,-0.187,0.135
0.51,0.002,-0.163,-0.164,0.081,0.083,-0.164,0.154,0.031,0.048,0.087,0.121,-0.011,-0.051,-0.186,0.135
0.511,-0.008,-0.172,-0.164,0.09,0.077,-0.168,0.15,0.024,0.04,0.078,0.115,-0.017,-0.054,-0.179,0.134
0.512,-0.011,-0.177,-0.166,0.094,0.077,-0.172,0.15,0.018,0.035,0.072,0.109,-0.021,-0.057,-0.179,0.135
0.513,0.003,-0.17,-0.172,0.084,0.087,-0.171,0.145,0.02,0.037,0.074,0.112,-0.019,-0.053,-0.183,0.136
0.514,0.004,-0.175,-0.178,0.086,0.091,-0.176,0.144,0.018,0.033,0.072,0.11,-0.021,-0.055,-0.185,0.139
0.515,0.003,-0.171,-0.173,0.084,0.088,-0.172,0.145,0.015,0.035,0.073,0.112,-0.019,-0.056,-0.178,0.139
0.516,-0.002,-0.173,-0.171,0.087,0.085,-0.172,0.14,0.017,0.036,0.074,0.112,-0.018,-0.054,-0.178,0.138
0.517,-0.005,-0.178,-0.173,0.091,0.084,-0.175,0.143,0.018,0.034,0.073,0.11,-0.019,-0.056,-0.175,0.133
0.518,-0.004,-0.177,-0.173,0.09,0.085,-0.175,0.144,0.017,0.033,0.069,0.108,-0.022,-0.056,-0.173,0.135
0.519,0,-0.18,-0.18,0.09,0.09,-0.18,0.143,0.013,0.029,0.065,0.105,-0.026,-0.057,-0.179,0.137
0.52,0.001,-0.179,-0.18,0.089,0.09,-0.179,0.142,0.011,0.03,0.066,0.104,-0.025,-0.058,-0.181,0.137
0.521,-0.002,-0.174,-0.173,0.088,0.086,-0.174,0.145,0.022,0.038,0.076,0.112,-0.018,-0.055,-0.184,0.137
0.522,-0.005,-0.174,-0.169,0.09,0.082,-0.172,0.153,0.025,0.042,0.081,0.117,-0.013,-0.054,-0.179,0.136
0.523,-0.012,-0.177,-0.166,0.095,0.077,-0.172,0.15,0.022,0.04,0.077,0.114,-0.014,-0.055,-0.182,0.136
0.524,-0.015,-0.172,-0.157,0.093,0.071,-0.165,0.157,0.026,0.043,0.079,0.117,-0.017,-0.057,-0.18,0.132
0.525,-0.011,-0.17,-0.159,0.091,0.074,-0.165,0.158,0.027,0.043,0.08,0.117,-0.018,-0.057,-0.18,0.131
0.526,-0.009,-0.172,-0.163,0.09,0.076,-0.167,0.151,0.026,0.043,0.08,0.117,-0.016,-0.054,-0.183,0.135
0.527,-0.011,-0.169,-0.158,0.09,0.073,-0.164,0.159,0.029,0.044,0.085,0.12,-0.013,-0.055,-0.176,0.134
0.528,-0.008,-0.167,-0.159,0.087,0.075,-0.163,0.159,0.033,0.048,0.089,0.126,-0.007,-0.052,-0.182,0.135
0.529,-0.013,-0.171,-0.158,0.092,0.072,-0.165,0.152,0.029,0.045,0.086,0.124,-0.009,-0.055,-0.187,0.137
0.53,-0.013,-0.171,-0.158,0.091,0.072,-0.164,0.154,0.029,0.047,0.084,0.123,-0.012,-0.057,-0.182,0.135
0.531,-0.01,-0.173,-0.164,0.091,0.077,-0.169,0.152,0.022,0.043,0.076,0.118,-0.015,-0.058,-0.178,0.134
0.532,-0.015,-0.18,-0.166,0.098,0.076,-0.173,0.147,0.015,0.036,0.071,0.115,-0.018,-0.059,-0.174,0.135
0.533,-0.014,-0.178,-0.165,0.096,0.075,-0.172,0.149,0.025,0.042,0.076,0.117,-0.016,-0.055,-0.172,0.134
0.534,-0.009,-0.177,-0.169,0.093,0.081,-0.173,0.15,0.024,0.04,0.077,0.114,-0.018,-0.055,-0.177,0.135
0.535,0.002,-0.168,-0.17,0.084,0.086,-0.169,0.148,0.021,0.038,0.077,0.115,-0.017,-0.053,-0.175,0.136
0.536,-0.007,-0.175,-0.168,0.091,0.08,-0.172,0.144,0.017,0.035,0.072,0.11,-0.022,-0.06,-0.173,0.133
0.537,-0.019,-0.183,-0.164,0.102,0.072,-0.173,0.146,0.015,0.032,0.068,0.106,-0.027,-0.064,-0.17,0.129
0.538,-0.009,-0.177,-0.169,0.093,0.08,-0.173,0.147,0.019,0.035,0.069,0.106,-0.026,-0.059,-0.17,0.131
0.539,-0.011,-0.184,-0.173,0.097,0.081,-0.178,0.142,0.013,0.03,0.065,0.103,-0.029,-0.059,-0.17,0.132
0.54,-0.019,-0.188,-0.168,0.103,0.074,-0.177,0.144,0.016,0.031,0.068,0.106,-0.026,-0.058,-0.172,0.132
0.541,-0.011,-0.18,-0.169,0.096,0.079,-0.174,0.151,0.024,0.038,0.077,0.114,-0.021,-0.059,-0.18,0.134
0.542,-0.006,-0.176,-0.17,0.091,0.082,-0.173,0.151,0.025,0.04,0.079,0.115,-0.019,-0.059,-0.182,0.133
0.543,-0.015,-0.174,-0.16,0.095,0.072,-0.167,0.153,0.025,0.041,0.081,0.115,-0.018,-0.057,-0.179,0.133
0.544,-0.011,-0.169,-0.158,0.09,0.073,-0.163,0.149,0.022,0.041,0.08,0.117,-0.018,-0.054,-0.176,0.135
0.545,-0.01,-0.174,-0.165,0.092,0.077,-0.17,0.146,0.021,0.038,0.076,0.112,-0.021,-0.056,-0.182,0.135
0.546,-0.013,-0.177,-0.165,0.095,0.076,-0.171,0.153,0.022,0.04,0.078,0.112,-0.019,-0.056,-0.179,0.134
0.547,-0.008,-0.17,-0.163,0.089,0.077,-0.166,0.155,0.027,0.044,0.084,0.119,-0.014,-0.054,-0.174,0.134
0.548,-0.011,-0.172,-0.161,0.091,0.075,-0.167,0.157,0.029,0.047,0.087,0.12,-0.012,-0.055,-0.183,0.133
0.549,-0.012,-0.173,-0.161,0.093,0.074,-0.167,0.153,0.029,0.047,0.086,0.12,-0.012,-0.054,-0.185,0.135
0.55,-0.009,-0.17,-0.161,0.089,0.076,-0.166,0.155,0.028,0.045,0.084,0.119,-0.013,-0.056,-0.182,0.134
0.551,-0.009,-0.173,-0.164,0.091,0.077,-0.169,0.154,0.024,0.041,0.077,0.115,-0.018,-0.058,-0.177,0.132
0.552,-0.009,-0.177,-0.168,0.093,0.079,-0.172,0.152,0.025,0.042,0.073,0.111,-0.022,-0.059,-0.175,0.131
0.553,-0.009,-0.18,-0.171,0.095,0.081,-0.175,0.153,0.027,0.043,0.073,0.11,-0.021,-0.06,-0.181,0.132
0.554,-0.009,-0.185,-0.175,0.098,0.083,-0.18,0.154,0.03,0.041,0.071,0.107,-0.025,-0.063,-0.183,0.129
0.555,-0.009,-0.185,-0.176,0.097,0.084,-0.181,0.16,0.035,0.043,0.072,0.108,-0.027,-0.066,-0.182,0.125
0.556,-0.013,-0.188,-0.175,0.1,0.081,-0.181,0.167,0.044,0.049,0.073,0.106,-0.029,-0.068,-0.181,0.121
0.557,-0.017,-0.196,-0.179,0.106,0.082,-0.188,0.17,0.046,0.047,0.069,0.1,-0.037,-0.073,-0.184,0.116
0.558,-0.02,-0.206,-0.186,0.114,0.084,-0.197,0.17,0.046,0.045,0.061,0.091,-0.044,-0.079,-0.189,0.115
0.559,-0.025,-0.216,-0.192,0.12,0.084,-0.204,0.177,0.053,0.046,0.059,0.086,-0.051,-0.082,-0.188,0.109
0.56,-0.023,-0.221,-0.198,0.121,0.087,-0.209,0.19,0.067,0.051,0.061,0.082,-0.057,-0.086,-0.194,0.103
0.561,-0.026,-0.226,-0.2,0.126,0.087,-0.212,0.203,0.088,0.066,0.07,0.082,-0.06,-0.093,-0.206,0.097
0.562,-0.029,-0.228,-0.199,0.129,0.085,-0.213,0.218,0.112,0.082,0.081,0.083,-0.062,-0.097,-0.214,0.086
0.563,-0.029,-0.236,-0.206,0.133,0.088,-0.221,0.231,0.132,0.095,0.081,0.075,-0.073,-0.105,-0.221,0.073
0.564,-0.029,-0.248,-0.22,0.139,0.095,-0.234,0.245,0.152,0.104,0.076,0.062,-0.088,-0.117,-0.228,0.06
0.565,-0.026,-0.264,-0.238,0.145,0.105,-0.251,0.257,0.175,0.114,0.074,0.052,-0.102,-0.126,-0.242,0.049
0.566,-0.028,-0.285,-0.257,0.157,0.115,-0.271,0.277,0.211,0.13,0.075,0.043,-0.116,-0.136,-0.258,0.032
0.567,-0.031,-0.304,-0.274,0.168,0.121,-0.288,0.303,0.251,0.148,0.082,0.034,-0.128,-0.147,-0.273,0.013
0.568,-0.025,-0.318,-0.293,0.171,0.135,-0.305,0.323,0.289,0.172,0.09,0.028,-0.136,-0.151,-0.29,-0.007
0.569,-0.018,-0.325,-0.306,0.172,0.144,-0.316,0.342,0.325,0.192,0.098,0.025,-0.141,-0.154,-0.299,-0.025
0.57,-0.021,-0.332,-0.311,0.177,0.145,-0.322,0.345,0.338,0.195,0.092,0.015,-0.148,-0.16,-0.3,-0.035
0.571,-0.018,-0.328,-0.31,0.172,0.146,-0.319,0.343,0.336,0.186,0.074,0,-0.16,-0.163,-0.295,-0.042
0.572,-0.005,-0.324,-0.318,0.165,0.156,-0.321,0.352,0.348,0.185,0.064,-0.011,-0.167,-0.165,-0.294,-0.05
0.573,-0.003,-0.315,-0.311,0.159,0.154,-0.313,0.354,0.362,0.191,0.062,-0.017,-0.167,-0.164,-0.285,-0.058
0.574,-0.007,-0.293,-0.287,0.15,0.14,-0.29,0.359,0.365,0.195,0.058,-0.021,-0.165,-0.161,-0.266,-0.065
0.575,0.001,-0.256,-0.256,0.128,0.129,-0.256,0.357,0.354,0.191,0.052,-0.017,-0.152,-0.151,-0.237,-0.067
0.576,0.016,-0.21,-0.227,0.098,0.121,-0.218,0.335,0.346,0.196,0.064,0.004,-0.129,-0.126,-0.203,-0.069
0.577,0.029,-0.175,-0.204,0.072,0.117,-0.19,0.325,0.35,0.211,0.08,0.024,-0.106,-0.1,-0.176,-0.074
0.578,0.045,-0.135,-0.18,0.045,0.113,-0.158,0.304,0.331,0.209,0.092,0.047,-0.078,-0.07,-0.15,-0.066
0.579,0.063,-0.108,-0.172,0.022,0.117,-0.14,0.283,0.334,0.221,0.117,0.077,-0.05,-0.034,-0.129,-0.064
0.58,0.084,-0.076,-0.16,-0.004,0.122,-0.118,0.265,0.352,0.258,0.166,0.121,-0.011,0.005,-0.112,-0.065
0.581,0.114,-0.026,-0.14,-0.043,0.127,-0.084,0.243,0.352,0.287,0.219,0.179,0.042,0.055,-0.092,-0.058
0.582,0.138,-0.005,-0.143,-0.066,0.141,-0.074,0.23,0.361,0.32,0.27,0.231,0.085,0.099,-0.09,-0.054
0.583,0.153,0.018,-0.134,-0.086,0.143,-0.058,0.203,0.36,0.357,0.336,0.294,0.132,0.148,-0.074,-0.056
0.584,0.164,0.073,-0.09,-0.118,0.127,-0.009,0.189,0.368,0.399,0.393,0.358,0.186,0.201,-0.028,-0.065
0.585,0.184,0.142,-0.042,-0.163,0.113,0.05,0.154,0.342,0.442,0.475,0.453,0.266,0.276,0.022,-0.061
0.586,0.212,0.257,0.044,-0.234,0.084,0.15,0.083,0.23,0.441,0.547,0.563,0.369,0.368,0.106,-0.026
0.587,0.234,0.363,0.129,-0.298,0.053,0.246,0.033,0.152,0.448,0.61,0.656,0.46,0.447,0.183,-0.004
0.588,0.257,0.444,0.187,-0.35,0.035,0.316,-0.004,0.097,0.481,0.692,0.757,0.548,0.526,0.241,0.006
0.589,0.267,0.554,0.288,-0.41,-0.011,0.421,-0.04,0.025,0.519,0.779,0.872,0.647,0.608,0.331,0.013
0.59,0.274,0.665,0.392,-0.469,-0.059,0.529,-0.089,-0.084,0.539,0.854,0.97,0.736,0.681,0.42,0.032
0.591,0.282,0.774,0.492,-0.528,-0.105,0.633,-0.157,-0.262,0.499,0.889,1.05,0.816,0.75,0.513,0.076
0.592,0.285,0.873,0.588,-0.58,-0.151,0.73,-0.211,-0.41,0.489,0.949,1.145,0.895,0.812,0.599,0.107
0.593,0.298,0.988,0.69,-0.643,-0.196,0.838,-0.265,-0.53,0.527,1.054,1.268,0.993,0.893,0.688,0.128
0.594,0.308,1.135,0.827,-0.722,-0.26,0.98,-0.319,-0.624,0.597,1.2,1.433,1.123,1.008,0.809,0.135
0.595,0.309,1.238,0.929,-0.774,-0.31,1.083,-0.363,-0.728,0.614,1.285,1.546,1.216,1.082,0.898,0.154
0.596,0.304,1.252,0.949,-0.778,-0.322,1.099,-0.394,-0.834,0.598,1.347,1.624,1.27,1.125,0.909,0.188
0.597,0.293,1.196,0.902,-0.745,-0.304,1.048,-0.395,-0.878,0.618,1.436,1.712,1.31,1.162,0.87,0.199
0.598,0.283,1.159,0.876,-0.721,-0.296,1.017,-0.4,-0.941,0.608,1.489,1.776,1.339,1.184,0.851,0.218
0.599,0.254,1.149,0.896,-0.702,-0.322,1.022,-0.418,-1.054,0.554,1.494,1.802,1.353,1.184,0.851,0.26
0.6,0.213,1.13,0.917,-0.671,-0.352,1.024,-0.422,-1.175,0.482,1.466,1.796,1.347,1.158,0.844,0.303
0.601,0.17,1.107,0.938,-0.639,-0.384,1.022,-0.398,-1.222,0.491,1.525,1.829,1.351,1.145,0.836,0.313
0.602,0.128,1.069,0.941,-0.599,-0.406,1.004,-0.379,-1.242,0.521,1.595,1.856,1.337,1.123,0.812,0.314
0.603,0.087,1.02,0.933,-0.553,-0.423,0.976,-0.365,-1.29,0.482,1.571,1.825,1.295,1.076,0.786,0.333
0.604,0.046,0.94,0.893,-0.493,-0.423,0.916,-0.342,-1.307,0.433,1.502,1.751,1.224,1.002,0.737,0.354
0.605,0.007,0.833,0.826,-0.419,-0.409,0.829,-0.314,-1.317,0.346,1.351,1.613,1.117,0.893,0.663,0.385
0.606,-0.05,0.729,0.778,-0.34,-0.414,0.753,-0.266,-1.343,0.184,1.083,1.405,0.983,0.742,0.599,0.425
0.607,-0.091,0.635,0.726,-0.272,-0.408,0.68,-0.255,-1.393,-0.009,0.812,1.206,0.861,0.609,0.524,0.487
0.608,-0.116,0.528,0.644,-0.206,-0.38,0.586,-0.257,-1.444,-0.205,0.555,0.996,0.732,0.474,0.438,0.556
0.609,-0.153,0.395,0.548,-0.121,-0.35,0.471,-0.232,-1.483,-0.444,0.219,0.716,0.56,0.295,0.34,0.624
0.61,-0.181,0.281,0.462,-0.05,-0.322,0.371,-0.224,-1.546,-0.723,-0.146,0.44,0.4,0.127,0.252,0.7
0.611,-0.203,0.173,0.376,0.015,-0.289,0.275,-0.224,-1.573,-0.911,-0.403,0.223,0.266,-0.005,0.178,0.751
0.612,-0.214,0.075,0.289,0.069,-0.252,0.182,-0.212,-1.553,-1.038,-0.586,0.046,0.15,-0.113,0.107,0.779
0.613,-0.207,-0.017,0.191,0.112,-0.199,0.086,-0.188,-1.498,-1.109,-0.706,-0.095,0.049,-0.204,0.029,0.785
0.614,-0.203,-0.085,0.118,0.144,-0.161,0.017,-0.175,-1.431,-1.08,-0.718,-0.173,-0.022,-0.261,-0.029,0.774
0.615,-0.201,-0.124,0.077,0.163,-0.139,-0.024,-0.161,-1.369,-1.03,-0.692,-0.208,-0.07,-0.294,-0.059,0.755
0.616,-0.203,-0.176,0.028,0.19,-0.116,-0.074,-0.141,-1.295,-0.981,-0.657,-0.229,-0.117,-0.327,-0.102,0.728
0.617,-0.209,-0.212,-0.003,0.21,-0.103,-0.107,-0.139,-1.252,-0.962,-0.646,-0.245,-0.15,-0.349,-0.128,0.711
0.618,-0.205,-0.239,-0.033,0.223,-0.086,-0.136,-0.127,-1.211,-0.943,-0.63,-0.255,-0.172,-0.362,-0.146,0.688
0.619,-0.202,-0.263,-0.061,0.232,-0.07,-0.162,-0.101,-1.146,-0.895,-0.595,-0.252,-0.192,-0.371,-0.166,0.652
0.62,-0.199,-0.285,-0.086,0.242,-0.056,-0.186,-0.078,-1.075,-0.839,-0.551,-0.234,-0.197,-0.369,-0.181,0.617
0.621,-0.199,-0.305,-0.107,0.252,-0.046,-0.206,-0.045,-1.006,-0.784,-0.506,-0.214,-0.194,-0.364,-0.205,0.583
0.622,-0.198,-0.305,-0.107,0.252,-0.045,-0.206,-0.029,-0.95,-0.739,-0.474,-0.197,-0.189,-0.359,-0.212,0.556
0.623,-0.196,-0.301,-0.105,0.249,-0.045,-0.203,-0.024,-0.899,-0.696,-0.446,-0.185,-0.185,-0.353,-0.209,0.529
0.624,-0.203,-0.299,-0.098,0.251,-0.052,-0.199,0.004,-0.853,-0.662,-0.427,-0.179,-0.187,-0.356,-0.201,0.498
0.625,-0.206,-0.302,-0.097,0.254,-0.054,-0.2,0.035,-0.799,-0.625,-0.405,-0.169,-0.186,-0.353,-0.2,0.466
0.626,-0.192,-0.295,-0.104,0.243,-0.043,-0.2,0.061,-0.742,-0.583,-0.374,-0.154,-0.181,-0.347,-0.201,0.435
0.627,-0.184,-0.278,-0.093,0.231,-0.045,-0.185,0.07,-0.693,-0.543,-0.344,-0.136,-0.173,-0.342,-0.189,0.413
0.628,-0.183,-0.266,-0.083,0.224,-0.05,-0.174,0.07,-0.65,-0.505,-0.316,-0.119,-0.164,-0.334,-0.184,0.393
0.629,-0.172,-0.254,-0.082,0.213,-0.045,-0.168,0.066,-0.613,-0.472,-0.289,-0.104,-0.156,-0.323,-0.183,0.381
0.63,-0.157,-0.245,-0.089,0.201,-0.034,-0.167,0.05,-0.571,-0.437,-0.265,-0.089,-0.147,-0.303,-0.183,0.367
0.631,-0.142,-0.242,-0.1,0.192,-0.021,-0.171,0.029,-0.533,-0.407,-0.246,-0.079,-0.145,-0.286,-0.181,0.352
0.632,-0.13,-0.225,-0.096,0.177,-0.017,-0.161,0.028,-0.481,-0.367,-0.216,-0.056,-0.131,-0.266,-0.164,0.334
0.633,-0.113,-0.204,-0.091,0.159,-0.011,-0.147,0.035,-0.432,-0.322,-0.179,-0.031,-0.11,-0.243,-0.153,0.312
0.634,-0.101,-0.191,-0.09,0.146,-0.005,-0.141,0.041,-0.385,-0.281,-0.146,-0.013,-0.098,-0.226,-0.148,0.289
0.635,-0.09,-0.173,-0.083,0.132,-0.004,-0.129,0.054,-0.323,-0.231,-0.106,0.014,-0.078,-0.2,-0.135,0.265
0.636,-0.074,-0.156,-0.082,0.115,0.004,-0.119,0.068,-0.272,-0.187,-0.072,0.037,-0.062,-0.176,-0.124,0.242
0.637,-0.061,-0.142,-0.081,0.102,0.009,-0.112,0.083,-0.227,-0.149,-0.045,0.055,-0.052,-0.16,-0.111,0.217
0.638,-0.058,-0.134,-0.077,0.096,0.01,-0.105,0.094,-0.187,-0.115,-0.021,0.071,-0.043,-0.143,-0.106,0.199
0.639,-0.05,-0.136,-0.086,0.092,0.018,-0.111,0.102,-0.154,-0.087,-0.002,0.083,-0.035,-0.128,-0.103,0.182
0.64,-0.034,-0.131,-0.097,0.083,0.032,-0.114,0.105,-0.119,-0.057,0.024,0.099,-0.024,-0.108,-0.106,0.171
0.641,-0.026,-0.127,-0.101,0.076,0.037,-0.114,0.115,-0.086,-0.029,0.049,0.115,-0.009,-0.094,-0.119,0.164
0.642,-0.018,-0.122,-0.105,0.07,0.043,-0.114,0.126,-0.057,-0.004,0.067,0.128,-0.001,-0.083,-0.12,0.155
0.643,-0.016,-0.124,-0.108,0.07,0.046,-0.116,0.127,-0.041,0.009,0.075,0.134,0.003,-0.073,-0.125,0.151
0.644,-0.019,-0.128,-0.108,0.073,0.044,-0.118,0.13,-0.033,0.017,0.08,0.134,0.003,-0.069,-0.127,0.147
0.645,-0.016,-0.126,-0.11,0.071,0.047,-0.118,0.134,-0.018,0.029,0.088,0.14,0.007,-0.063,-0.123,0.142
0.646,-0.013,-0.125,-0.112,0.069,0.05,-0.118,0.138,-0.008,0.035,0.096,0.143,0.011,-0.059,-0.127,0.14
0.647,-0.011,-0.123,-0.112,0.067,0.051,-0.117,0.14,0,0.044,0.101,0.145,0.012,-0.056,-0.133,0.14
0.648,-0.019,-0.126,-0.106,0.072,0.043,-0.116,0.145,0.01,0.054,0.109,0.151,0.015,-0.054,-0.129,0.134
0.649,-0.025,-0.128,-0.103,0.076,0.039,-0.115,0.153,0.018,0.06,0.115,0.155,0.018,-0.05,-0.127,0.129
0.65,-0.007,-0.12,-0.112,0.064,0.052,-0.116,0.144,0.024,0.064,0.119,0.159,0.019,-0.043,-0.135,0.129
0.651,-0.001,-0.119,-0.119,0.06,0.059,-0.119,0.138,0.024,0.064,0.114,0.155,0.015,-0.041,-0.13,0.126
0.652,-0.012,-0.129,-0.117,0.07,0.052,-0.122,0.143,0.023,0.062,0.109,0.151,0.013,-0.04,-0.126,0.123
0.653,-0.004,-0.126,-0.121,0.065,0.059,-0.123,0.145,0.033,0.07,0.117,0.155,0.015,-0.035,-0.13,0.123
0.654,0.006,-0.121,-0.128,0.058,0.067,-0.124,0.146,0.041,0.075,0.122,0.16,0.016,-0.03,-0.132,0.12
0.655,0.005,-0.121,-0.126,0.059,0.066,-0.123,0.143,0.044,0.076,0.124,0.162,0.018,-0.026,-0.132,0.121
0.656,0.004,-0.124,-0.129,0.06,0.067,-0.127,0.141,0.046,0.079,0.123,0.159,0.014,-0.028,-0.134,0.118
0.657,0.003,-0.128,-0.13,0.062,0.067,-0.129,0.141,0.048,0.079,0.122,0.159,0.011,-0.028,-0.13,0.114
0.658,0.003,-0.126,-0.129,0.061,0.066,-0.128,0.141,0.052,0.082,0.124,0.16,0.012,-0.026,-0.128,0.114
0.659,0.005,-0.131,-0.136,0.062,0.07,-0.133,0.14,0.054,0.085,0.127,0.16,0.011,-0.025,-0.133,0.112
0.66,0.008,-0.13,-0.138,0.061,0.073,-0.134,0.138,0.059,0.089,0.132,0.165,0.015,-0.021,-0.133,0.11
0.661,0.011,-0.128,-0.138,0.059,0.074,-0.133,0.142,0.066,0.097,0.14,0.169,0.019,-0.021,-0.135,0.11
0.662,0.007,-0.126,-0.134,0.059,0.07,-0.13,0.148,0.07,0.102,0.145,0.171,0.019,-0.024,-0.137,0.107
0.663,0.007,-0.125,-0.132,0.059,0.07,-0.129,0.146,0.072,0.103,0.146,0.173,0.021,-0.021,-0.136,0.105
0.664,0.009,-0.12,-0.129,0.056,0.069,-0.124,0.157,0.077,0.107,0.15,0.176,0.025,-0.018,-0.133,0.102
0.665,0.011,-0.122,-0.134,0.056,0.072,-0.128,0.152,0.082,0.111,0.152,0.179,0.027,-0.015,-0.135,0.103
0.666,0.011,-0.124,-0.136,0.056,0.073,-0.13,0.147,0.082,0.112,0.154,0.179,0.028,-0.014,-0.139,0.103
0.667,0.019,-0.115,-0.135,0.048,0.077,-0.124,0.156,0.086,0.116,0.161,0.184,0.032,-0.009,-0.144,0.103
0.668,0.019,-0.116,-0.136,0.049,0.077,-0.126,0.153,0.088,0.119,0.165,0.189,0.037,-0.007,-0.145,0.104
0.669,0.015,-0.115,-0.13,0.05,0.072,-0.122,0.158,0.094,0.124,0.17,0.194,0.041,-0.007,-0.137,0.102
0.67,0.022,-0.112,-0.134,0.045,0.078,-0.122,0.156,0.1,0.125,0.171,0.197,0.043,-0.002,-0.139,0.104
0.671,0.018,-0.119,-0.136,0.051,0.076,-0.128,0.15,0.089,0.117,0.161,0.191,0.037,-0.003,-0.135,0.103
0.672,0.022,-0.122,-0.143,0.05,0.083,-0.133,0.144,0.085,0.114,0.157,0.187,0.034,-0.001,-0.134,0.103
0.673,0.025,-0.122,-0.146,0.049,0.086,-0.135,0.145,0.09,0.117,0.16,0.19,0.037,0.003,-0.136,0.103
0.674,0.023,-0.127,-0.149,0.052,0.086,-0.138,0.145,0.09,0.12,0.161,0.19,0.036,0,-0.14,0.103
0.675,0.031,-0.118,-0.149,0.044,0.09,-0.135,0.143,0.094,0.121,0.164,0.192,0.037,0.002,-0.139,0.104
0.676,0.031,-0.117,-0.147,0.043,0.089,-0.133,0.15,0.097,0.123,0.168,0.193,0.039,0.004,-0.137,0.102
0.677,0.029,-0.121,-0.15,0.045,0.09,-0.136,0.146,0.098,0.123,0.167,0.195,0.037,0.005,-0.138,0.099
0.678,0.032,-0.117,-0.148,0.043,0.09,-0.133,0.142,0.098,0.122,0.166,0.197,0.037,0.006,-0.132,0.099
0.679,0.029,-0.126,-0.155,0.049,0.092,-0.141,0.144,0.095,0.12,0.164,0.192,0.033,0.004,-0.134,0.097
0.68,0.033,-0.127,-0.159,0.047,0.096,-0.142,0.145,0.098,0.123,0.168,0.195,0.035,0.005,-0.136,0.096
0.681,0.036,-0.119,-0.155,0.041,0.096,-0.137,0.15,0.106,0.131,0.178,0.202,0.043,0.009,-0.14,0.097
0.682,0.031,-0.118,-0.149,0.043,0.09,-0.134,0.154,0.113,0.135,0.184,0.205,0.048,0.009,-0.143,0.097
0.683,0.025,-0.118,-0.143,0.047,0.084,-0.131,0.151,0.112,0.136,0.184,0.207,0.05,0.009,-0.136,0.094
0.684,0.025,-0.114,-0.139,0.045,0.081,-0.126,0.149,0.113,0.139,0.186,0.209,0.052,0.011,-0.133,0.094
0.685,0.029,-0.112,-0.141,0.041,0.086,-0.127,0.15,0.118,0.14,0.188,0.208,0.051,0.013,-0.14,0.095
0.686,0.028,-0.113,-0.14,0.043,0.084,-0.127,0.149,0.116,0.14,0.187,0.207,0.05,0.011,-0.139,0.095
0.687,0.034,-0.104,-0.139,0.035,0.086,-0.121,0.151,0.118,0.145,0.193,0.212,0.054,0.015,-0.138,0.098
0.688,0.037,-0.102,-0.14,0.033,0.088,-0.121,0.154,0.12,0.148,0.196,0.215,0.058,0.015,-0.141,0.097
0.689,0.036,-0.1,-0.137,0.032,0.087,-0.118,0.154,0.123,0.15,0.2,0.22,0.061,0.017,-0.14,0.096
0.69,0.033,-0.102,-0.136,0.035,0.084,-0.119,0.151,0.124,0.152,0.202,0.221,0.061,0.018,-0.136,0.096
0.691,0.029,-0.104,-0.134,0.037,0.081,-0.118,0.149,0.118,0.148,0.195,0.216,0.056,0.018,-0.131,0.095
0.692,0.041,-0.102,-0.142,0.03,0.092,-0.122,0.148,0.117,0.145,0.192,0.216,0.053,0.022,-0.127,0.095
0.693,0.04,-0.106,-0.146,0.033,0.093,-0.126,0.147,0.118,0.147,0.192,0.216,0.054,0.022,-0.126,0.095
0.694,0.036,-0.106,-0.143,0.035,0.089,-0.125,0.145,0.118,0.145,0.193,0.215,0.055,0.021,-0.134,0.098
0.695,0.037,-0.107,-0.144,0.035,0.09,-0.126,0.144,0.118,0.145,0.195,0.216,0.055,0.021,-0.134,0.098
0.696,0.04,-0.106,-0.146,0.034,0.092,-0.126,0.143,0.12,0.147,0.196,0.218,0.056,0.021,-0.135,0.096
0.697,0.038,-0.109,-0.147,0.035,0.093,-0.129,0.138,0.119,0.144,0.194,0.215,0.053,0.022,-0.138,0.096
0.698,0.033,-0.108,-0.141,0.038,0.087,-0.124,0.136,0.118,0.145,0.195,0.218,0.056,0.024,-0.124,0.095
0.699,0.029,-0.113,-0.142,0.042,0.086,-0.128,0.138,0.117,0.144,0.195,0.216,0.056,0.025,-0.121,0.095
0.7,0.038,-0.114,-0.151,0.037,0.095,-0.133,0.14,0.119,0.148,0.197,0.217,0.055,0.024,-0.132,0.095
0.701,0.042,-0.107,-0.149,0.033,0.096,-0.128,0.141,0.129,0.155,0.209,0.229,0.066,0.025,-0.133,0.094
0.702,0.036,-0.109,-0.145,0.036,0.09,-0.127,0.143,0.133,0.162,0.215,0.233,0.069,0.024,-0.136,0.092
0.703,0.039,-0.104,-0.144,0.033,0.091,-0.124,0.143,0.134,0.166,0.216,0.237,0.071,0.028,-0.134,0.092
0.704,0.034,-0.106,-0.141,0.036,0.087,-0.123,0.143,0.133,0.163,0.215,0.235,0.072,0.028,-0.131,0.091
0.705,0.028,-0.111,-0.139,0.042,0.084,-0.125,0.143,0.135,0.165,0.219,0.237,0.071,0.028,-0.133,0.089
0.706,0.032,-0.106,-0.138,0.037,0.085,-0.121,0.139,0.135,0.166,0.221,0.239,0.073,0.034,-0.129,0.091
0.707,0.033,-0.102,-0.136,0.035,0.085,-0.118,0.141,0.137,0.168,0.223,0.24,0.075,0.031,-0.126,0.092
0.708,0.033,-0.1,-0.133,0.034,0.083,-0.117,0.147,0.141,0.172,0.228,0.245,0.077,0.03,-0.131,0.092
0.709,0.032,-0.098,-0.131,0.033,0.081,-0.115,0.146,0.142,0.174,0.231,0.246,0.081,0.034,-0.135,0.093
0.71,0.032,-0.098,-0.13,0.033,0.081,-0.114,0.145,0.145,0.176,0.232,0.248,0.082,0.034,-0.131,0.089
0.711,0.038,-0.095,-0.134,0.028,0.086,-0.114,0.144,0.139,0.172,0.227,0.247,0.077,0.036,-0.127,0.088
0.712,0.046,-0.093,-0.14,0.023,0.093,-0.117,0.14,0.137,0.168,0.224,0.243,0.075,0.038,-0.126,0.09
0.713,0.043,-0.098,-0.141,0.028,0.091,-0.119,0.142,0.137,0.168,0.222,0.242,0.074,0.037,-0.127,0.09
0.714,0.044,-0.099,-0.142,0.027,0.093,-0.12,0.139,0.136,0.169,0.225,0.244,0.076,0.04,-0.128,0.092
0.715,0.051,-0.091,-0.142,0.02,0.097,-0.117,0.136,0.138,0.171,0.229,0.246,0.077,0.043,-0.122,0.093
0.716,0.041,-0.097,-0.138,0.028,0.089,-0.117,0.142,0.141,0.173,0.23,0.248,0.076,0.04,-0.122,0.089
0.717,0.041,-0.103,-0.144,0.031,0.093,-0.124,0.138,0.138,0.173,0.228,0.247,0.074,0.042,-0.127,0.087
0.718,0.048,-0.101,-0.148,0.026,0.098,-0.124,0.132,0.134,0.17,0.225,0.246,0.072,0.044,-0.122,0.09
0.719,0.043,-0.103,-0.146,0.03,0.095,-0.125,0.131,0.134,0.17,0.225,0.245,0.072,0.044,-0.116,0.09
0.72,0.055,-0.1,-0.155,0.022,0.105,-0.128,0.13,0.138,0.174,0.23,0.249,0.077,0.051,-0.121,0.091
0.721,0.055,-0.098,-0.153,0.021,0.104,-0.126,0.133,0.145,0.179,0.239,0.257,0.085,0.051,-0.127,0.092
0.722,0.049,-0.097,-0.145,0.025,0.097,-0.121,0.137,0.149,0.185,0.245,0.262,0.088,0.051,-0.123,0.09
0.723,0.048,-0.093,-0.141,0.023,0.094,-0.117,0.141,0.153,0.188,0.247,0.265,0.09,0.051,-0.122,0.089
0.724,0.046,-0.093,-0.14,0.024,0.093,-0.117,0.139,0.153,0.188,0.247,0.264,0.088,0.048,-0.122,0.088
0.725,0.043,-0.098,-0.141,0.027,0.092,-0.119,0.142,0.154,0.191,0.248,0.263,0.088,0.048,-0.124,0.085
0.726,0.047,-0.093,-0.14,0.023,0.093,-0.117,0.143,0.155,0.193,0.252,0.266,0.091,0.051,-0.123,0.086
0.727,0.05,-0.088,-0.138,0.019,0.094,-0.113,0.141,0.153,0.195,0.254,0.268,0.092,0.051,-0.124,0.089
0.728,0.038,-0.092,-0.13,0.027,0.084,-0.111,0.152,0.161,0.201,0.258,0.273,0.095,0.049,-0.123,0.085
0.729,0.043,-0.085,-0.129,0.021,0.086,-0.106,0.156,0.169,0.206,0.265,0.279,0.099,0.053,-0.126,0.083
0.73,0.049,-0.084,-0.133,0.018,0.091,-0.108,0.15,0.167,0.205,0.266,0.279,0.097,0.053,-0.129,0.084
0.731,0.051,-0.086,-0.138,0.018,0.095,-0.112,0.144,0.16,0.198,0.257,0.274,0.093,0.053,-0.119,0.084
0.732,0.052,-0.09,-0.142,0.019,0.098,-0.117,0.14,0.153,0.195,0.253,0.271,0.091,0.053,-0.117,0.085
0.733,0.05,-0.092,-0.141,0.021,0.096,-0.117,0.143,0.161,0.202,0.26,0.277,0.093,0.055,-0.118,0.083
0.734,0.045,-0.093,-0.139,0.024,0.092,-0.116,0.141,0.165,0.204,0.263,0.278,0.096,0.058,-0.121,0.085
0.735,0.052,-0.092,-0.144,0.02,0.098,-0.118,0.134,0.159,0.202,0.262,0.278,0.095,0.06,-0.118,0.086
0.736,0.06,-0.088,-0.149,0.013,0.104,-0.118,0.134,0.161,0.203,0.263,0.28,0.097,0.063,-0.119,0.085
0.737,0.047,-0.097,-0.143,0.025,0.095,-0.12,0.137,0.161,0.203,0.264,0.278,0.094,0.06,-0.119,0.082
0.738,0.047,-0.097,-0.143,0.025,0.095,-0.12,0.134,0.161,0.205,0.267,0.281,0.095,0.062,-0.109,0.08
0.739,0.056,-0.09,-0.146,0.018,0.101,-0.118,0.134,0.165,0.207,0.269,0.283,0.099,0.068,-0.106,0.081
0.74,0.059,-0.091,-0.149,0.016,0.104,-0.12,0.131,0.165,0.209,0.269,0.282,0.098,0.07,-0.112,0.083
0.741,0.059,-0.09,-0.148,0.015,0.103,-0.119,0.132,0.171,0.215,0.277,0.289,0.102,0.069,-0.116,0.084
0.742,0.062,-0.079,-0.141,0.009,0.102,-0.11,0.139,0.178,0.222,0.287,0.296,0.109,0.071,-0.117,0.083
0.743,0.046,-0.084,-0.129,0.018,0.087,-0.106,0.139,0.176,0.221,0.286,0.296,0.109,0.07,-0.115,0.082
0.744,0.051,-0.081,-0.132,0.015,0.091,-0.106,0.136,0.176,0.22,0.286,0.299,0.111,0.072,-0.113,0.082
0.745,0.062,-0.074,-0.137,0.006,0.1,-0.105,0.135,0.178,0.224,0.291,0.301,0.113,0.073,-0.113,0.08
0.746,0.046,-0.078,-0.124,0.016,0.085,-0.101,0.137,0.18,0.225,0.292,0.3,0.112,0.07,-0.107,0.078
0.747,0.062,-0.064,-0.127,0.001,0.095,-0.096,0.136,0.186,0.229,0.298,0.306,0.118,0.076,-0.108,0.081
0.748,0.066,-0.061,-0.127,-0.003,0.097,-0.094,0.14,0.19,0.236,0.306,0.312,0.123,0.081,-0.114,0.081
0.749,0.052,-0.066,-0.118,0.006,0.086,-0.092,0.144,0.194,0.238,0.309,0.314,0.123,0.079,-0.11,0.077
0.75,0.053,-0.066,-0.118,0.006,0.086,-0.092,0.141,0.196,0.241,0.311,0.317,0.125,0.079,-0.105,0.075
0.751,0.06,-0.064,-0.124,0.002,0.092,-0.094,0.136,0.191,0.24,0.308,0.315,0.123,0.084,-0.106,0.075
0.752,0.067,-0.064,-0.131,-0.002,0.099,-0.097,0.128,0.191,0.237,0.304,0.314,0.121,0.086,-0.102,0.077
0.753,0.062,-0.07,-0.132,0.004,0.097,-0.101,0.13,0.192,0.241,0.308,0.316,0.121,0.086,-0.102,0.075
0.754,0.065,-0.07,-0.135,0.003,0.1,-0.103,0.133,0.194,0.244,0.311,0.318,0.123,0.087,-0.105,0.076
0.755,0.079,-0.062,-0.141,-0.008,0.11,-0.102,0.122,0.196,0.247,0.316,0.323,0.13,0.094,-0.103,0.077
0.756,0.076,-0.06,-0.137,-0.008,0.106,-0.099,0.126,0.201,0.252,0.323,0.329,0.135,0.097,-0.1,0.076
0.757,0.065,-0.066,-0.131,0.001,0.098,-0.099,0.136,0.204,0.254,0.326,0.332,0.137,0.099,-0.095,0.071
0.758,0.071,-0.067,-0.139,-0.003,0.105,-0.103,0.13,0.198,0.248,0.319,0.325,0.131,0.097,-0.098,0.073
0.759,0.074,-0.066,-0.141,-0.004,0.107,-0.103,0.12,0.196,0.246,0.316,0.324,0.131,0.098,-0.094,0.076
0.76,0.071,-0.066,-0.138,-0.003,0.105,-0.102,0.121,0.201,0.253,0.325,0.331,0.137,0.104,-0.091,0.074
0.761,0.073,-0.061,-0.136,-0.006,0.104,-0.099,0.13,0.207,0.26,0.335,0.335,0.14,0.104,-0.096,0.073
0.762,0.071,-0.056,-0.127,-0.007,0.099,-0.091,0.133,0.213,0.268,0.343,0.342,0.145,0.105,-0.095,0.071
0.763,0.068,-0.054,-0.122,-0.007,0.095,-0.088,0.134,0.214,0.269,0.344,0.345,0.147,0.105,-0.091,0.068
0.764,0.072,-0.049,-0.12,-0.012,0.097,-0.085,0.131,0.215,0.27,0.345,0.346,0.147,0.107,-0.088,0.069
0.765,0.073,-0.05,-0.122,-0.011,0.098,-0.086,0.131,0.218,0.273,0.349,0.349,0.15,0.111,-0.095,0.068
0.766,0.069,-0.052,-0.121,-0.009,0.095,-0.086,0.131,0.222,0.277,0.354,0.353,0.153,0.114,-0.092,0.068
0.767,0.074,-0.043,-0.117,-0.015,0.096,-0.081,0.131,0.227,0.282,0.361,0.359,0.157,0.115,-0.087,0.068
0.768,0.076,-0.041,-0.117,-0.018,0.097,-0.079,0.133,0.229,0.284,0.368,0.365,0.16,0.117,-0.088,0.067
0.769,0.08,-0.034,-0.114,-0.023,0.097,-0.074,0.134,0.234,0.291,0.374,0.371,0.166,0.121,-0.087,0.065
0.77,0.081,-0.033,-0.114,-0.024,0.098,-0.073,0.132,0.235,0.291,0.374,0.372,0.166,0.12,-0.086,0.063
0.771,0.082,-0.035,-0.117,-0.024,0.099,-0.075,0.122,0.229,0.284,0.369,0.37,0.164,0.124,-0.08,0.064
0.772,0.082,-0.036,-0.118,-0.023,0.1,-0.077,0.116,0.227,0.284,0.366,0.369,0.163,0.127,-0.079,0.065
0.773,0.079,-0.038,-0.116,-0.02,0.098,-0.077,0.114,0.227,0.284,0.368,0.369,0.162,0.126,-0.077,0.066
0.774,0.092,-0.028,-0.12,-0.032,0.106,-0.074,0.117,0.232,0.289,0.375,0.376,0.17,0.135,-0.076,0.066
0.775,0.091,-0.025,-0.117,-0.033,0.104,-0.071,0.115,0.234,0.293,0.377,0.379,0.171,0.137,-0.07,0.065
0.776,0.088,-0.021,-0.109,-0.034,0.099,-0.065,0.115,0.236,0.294,0.38,0.383,0.173,0.14,-0.068,0.065
0.777,0.091,-0.02,-0.111,-0.035,0.101,-0.066,0.111,0.236,0.295,0.383,0.389,0.178,0.146,-0.064,0.06
0.778,0.087,-0.021,-0.108,-0.033,0.098,-0.065,0.106,0.235,0.295,0.383,0.388,0.174,0.144,-0.056,0.059
0.779,0.093,-0.012,-0.106,-0.041,0.1,-0.059,0.107,0.238,0.297,0.386,0.389,0.174,0.145,-0.053,0.061
0.78,0.091,-0.012,-0.103,-0.04,0.098,-0.058,0.108,0.239,0.301,0.393,0.393,0.178,0.147,-0.05,0.059
0.781,0.095,-0.007,-0.102,-0.043,0.099,-0.055,0.11,0.247,0.309,0.404,0.4,0.186,0.153,-0.056,0.06
0.782,0.097,-0.002,-0.099,-0.047,0.098,-0.051,0.112,0.255,0.317,0.413,0.409,0.194,0.158,-0.059,0.059
0.783,0.098,0.002,-0.096,-0.05,0.097,-0.047,0.116,0.258,0.322,0.418,0.415,0.198,0.162,-0.051,0.058
0.784,0.101,0.007,-0.095,-0.054,0.098,-0.044,0.115,0.261,0.326,0.42,0.419,0.202,0.165,-0.044,0.055
0.785,0.096,0.005,-0.091,-0.051,0.093,-0.043,0.111,0.263,0.328,0.423,0.422,0.201,0.163,-0.046,0.051
0.786,0.099,0.009,-0.089,-0.054,0.094,-0.04,0.107,0.266,0.331,0.431,0.429,0.208,0.17,-0.044,0.053
0.787,0.101,0.015,-0.086,-0.058,0.093,-0.036,0.108,0.271,0.336,0.437,0.436,0.214,0.174,-0.044,0.054
0.788,0.101,0.018,-0.082,-0.059,0.091,-0.032,0.115,0.274,0.342,0.444,0.443,0.222,0.179,-0.045,0.052
0.789,0.094,0.022,-0.071,-0.058,0.083,-0.025,0.117,0.279,0.346,0.451,0.451,0.23,0.182,-0.041,0.049
0.79,0.096,0.027,-0.07,-0.061,0.083,-0.021,0.114,0.281,0.347,0.453,0.455,0.23,0.184,-0.041,0.047
0.791,0.103,0.029,-0.073,-0.067,0.088,-0.022,0.105,0.276,0.344,0.45,0.455,0.229,0.19,-0.033,0.045
0.792,0.105,0.032,-0.073,-0.069,0.089,-0.021,0.099,0.273,0.343,0.449,0.456,0.226,0.19,-0.025,0.045
0.793,0.12,0.042,-0.079,-0.081,0.1,-0.018,0.098,0.277,0.347,0.456,0.463,0.234,0.2,-0.023,0.049
0.794,0.127,0.048,-0.079,-0.087,0.102,-0.015,0.097,0.281,0.351,0.465,0.469,0.24,0.208,-0.024,0.049
0.795,0.119,0.052,-0.068,-0.086,0.093,-0.008,0.097,0.281,0.355,0.47,0.475,0.244,0.21,-0.021,0.047
0.796,0.126,0.057,-0.068,-0.091,0.097,-0.005,0.091,0.284,0.358,0.475,0.481,0.251,0.218,-0.017,0.045
0.797,0.134,0.06,-0.074,-0.097,0.104,-0.007,0.08,0.283,0.36,0.476,0.482,0.251,0.223,-0.013,0.046
0.798,0.129,0.058,-0.071,-0.093,0.1,-0.006,0.08,0.282,0.362,0.477,0.485,0.253,0.226,-0.007,0.047
0.799,0.127,0.061,-0.066,-0.094,0.097,-0.003,0.081,0.283,0.362,0.479,0.489,0.257,0.229,-0.004,0.045
0.8,0.127,0.067,-0.06,-0.097,0.093,0.003,0.081,0.286,0.366,0.486,0.495,0.261,0.232,-0.004,0.044
0.801,0.13,0.073,-0.056,-0.102,0.093,0.009,0.081,0.295,0.375,0.501,0.507,0.271,0.238,-0.003,0.043
0.802,0.135,0.085,-0.049,-0.11,0.091,0.018,0.083,0.301,0.382,0.511,0.518,0.281,0.245,0.004,0.043
0.803,0.136,0.093,-0.043,-0.115,0.089,0.025,0.081,0.304,0.387,0.519,0.525,0.287,0.252,0.007,0.041
0.804,0.133,0.095,-0.037,-0.114,0.085,0.029,0.077,0.306,0.388,0.523,0.527,0.291,0.256,0.011,0.038
0.805,0.134,0.098,-0.036,-0.116,0.085,0.031,0.076,0.309,0.391,0.527,0.534,0.297,0.263,0.011,0.038
0.806,0.137,0.106,-0.03,-0.121,0.083,0.038,0.072,0.31,0.394,0.535,0.542,0.304,0.271,0.017,0.04
0.807,0.135,0.117,-0.018,-0.126,0.076,0.049,0.072,0.313,0.401,0.544,0.55,0.312,0.275,0.022,0.041
0.808,0.146,0.13,-0.018,-0.138,0.082,0.056,0.07,0.318,0.407,0.556,0.564,0.323,0.284,0.025,0.04
0.809,0.155,0.138,-0.017,-0.146,0.086,0.06,0.065,0.321,0.41,0.562,0.57,0.33,0.292,0.029,0.04
0.81,0.153,0.141,-0.011,-0.147,0.082,0.066,0.065,0.32,0.412,0.566,0.577,0.334,0.294,0.035,0.037
0.811,0.152,0.143,-0.009,-0.148,0.081,0.067,0.055,0.312,0.405,0.563,0.577,0.333,0.298,0.041,0.036
0.812,0.157,0.145,-0.011,-0.151,0.084,0.068,0.046,0.308,0.403,0.564,0.58,0.332,0.305,0.046,0.037
0.813,0.162,0.153,-0.009,-0.158,0.086,0.072,0.048,0.314,0.411,0.574,0.591,0.341,0.311,0.052,0.036
0.814,0.169,0.158,-0.011,-0.164,0.09,0.073,0.042,0.318,0.416,0.581,0.599,0.348,0.317,0.053,0.036
0.815,0.167,0.163,-0.004,-0.165,0.085,0.08,0.041,0.315,0.417,0.585,0.606,0.354,0.324,0.059,0.037
0.816,0.153,0.162,0.009,-0.158,0.072,0.085,0.044,0.316,0.421,0.589,0.609,0.357,0.323,0.062,0.034
0.817,0.159,0.166,0.007,-0.162,0.075,0.087,0.041,0.319,0.422,0.593,0.614,0.362,0.327,0.067,0.031
0.818,0.167,0.172,0.004,-0.17,0.082,0.088,0.032,0.316,0.42,0.594,0.619,0.366,0.335,0.07,0.033
0.819,0.165,0.172,0.008,-0.169,0.078,0.09,0.028,0.314,0.418,0.595,0.621,0.365,0.336,0.076,0.035
0.82,0.17,0.185,0.015,-0.178,0.077,0.101,0.03,0.318,0.422,0.606,0.631,0.376,0.343,0.084,0.036
0.821,0.178,0.196,0.018,-0.187,0.08,0.107,0.03,0.324,0.43,0.62,0.642,0.388,0.351,0.083,0.037
0.822,0.173,0.203,0.03,-0.189,0.071,0.117,0.032,0.327,0.435,0.626,0.649,0.394,0.353,0.086,0.035
0.823,0.172,0.21,0.039,-0.191,0.067,0.124,0.032,0.327,0.438,0.629,0.655,0.4,0.356,0.09,0.034
0.824,0.183,0.221,0.037,-0.202,0.073,0.129,0.028,0.33,0.444,0.636,0.664,0.408,0.363,0.097,0.031
0.825,0.184,0.227,0.043,-0.205,0.07,0.135,0.025,0.334,0.448,0.644,0.67,0.411,0.369,0.099,0.03
0.826,0.188,0.234,0.046,-0.211,0.071,0.14,0.021,0.335,0.451,0.649,0.677,0.417,0.378,0.104,0.033
0.827,0.192,0.243,0.052,-0.217,0.07,0.147,0.019,0.336,0.454,0.657,0.686,0.426,0.386,0.107,0.035
0.828,0.19,0.251,0.061,-0.22,0.064,0.155,0.021,0.34,0.458,0.666,0.693,0.433,0.391,0.109,0.034
0.829,0.193,0.263,0.07,-0.228,0.061,0.166,0.02,0.342,0.462,0.672,0.702,0.442,0.397,0.119,0.032
0.83,0.19,0.269,0.079,-0.229,0.056,0.173,0.017,0.34,0.461,0.675,0.708,0.447,0.403,0.126,0.033
0.831,0.198,0.277,0.079,-0.237,0.06,0.177,0.007,0.336,0.459,0.674,0.709,0.447,0.411,0.133,0.032
0.832,0.203,0.28,0.076,-0.241,0.064,0.178,0,0.332,0.457,0.673,0.71,0.448,0.419,0.14,0.034
0.833,0.205,0.282,0.077,-0.244,0.065,0.18,-0.006,0.33,0.457,0.676,0.715,0.453,0.426,0.143,0.036
0.834,0.21,0.29,0.08,-0.25,0.066,0.185,-0.009,0.329,0.459,0.681,0.722,0.46,0.433,0.147,0.037
0.835,0.214,0.298,0.085,-0.256,0.065,0.192,-0.007,0.331,0.462,0.688,0.732,0.466,0.438,0.154,0.035
0.836,0.216,0.303,0.086,-0.26,0.066,0.195,-0.011,0.33,0.462,0.691,0.736,0.467,0.44,0.155,0.033
0.837,0.22,0.307,0.088,-0.264,0.066,0.198,-0.015,0.328,0.462,0.692,0.739,0.467,0.444,0.157,0.033
0.838,0.221,0.31,0.09,-0.266,0.066,0.201,-0.018,0.326,0.46,0.693,0.744,0.471,0.451,0.165,0.034
0.839,0.218,0.308,0.09,-0.264,0.065,0.2,-0.022,0.322,0.459,0.694,0.745,0.477,0.455,0.168,0.034
0.84,0.217,0.315,0.099,-0.266,0.059,0.206,-0.022,0.322,0.461,0.697,0.749,0.484,0.459,0.176,0.035
0.841,0.22,0.329,0.108,-0.275,0.056,0.218,-0.018,0.328,0.469,0.71,0.761,0.492,0.462,0.178,0.035
0.842,0.224,0.341,0.117,-0.282,0.053,0.229,-0.019,0.33,0.475,0.72,0.768,0.5,0.468,0.178,0.035
0.843,0.218,0.342,0.123,-0.281,0.048,0.233,-0.028,0.326,0.471,0.719,0.771,0.503,0.47,0.18,0.036
0.844,0.226,0.352,0.127,-0.289,0.05,0.239,-0.025,0.326,0.476,0.724,0.778,0.507,0.474,0.187,0.034
0.845,0.24,0.366,0.126,-0.303,0.058,0.246,-0.027,0.326,0.479,0.728,0.783,0.513,0.482,0.194,0.034
0.846,0.233,0.366,0.133,-0.299,0.05,0.249,-0.035,0.322,0.475,0.728,0.785,0.517,0.485,0.196,0.037
0.847,0.229,0.373,0.143,-0.301,0.043,0.258,-0.034,0.32,0.476,0.731,0.79,0.522,0.486,0.202,0.041
0.848,0.231,0.382,0.151,-0.306,0.04,0.267,-0.034,0.32,0.479,0.736,0.796,0.525,0.486,0.2,0.04
0.849,0.222,0.381,0.159,-0.302,0.032,0.27,-0.034,0.317,0.48,0.738,0.797,0.527,0.487,0.204,0.039
0.85,0.233,0.391,0.159,-0.311,0.037,0.275,-0.041,0.313,0.479,0.737,0.799,0.531,0.492,0.206,0.042
0.851,0.234,0.396,0.161,-0.315,0.036,0.279,-0.045,0.305,0.475,0.732,0.797,0.528,0.493,0.214,0.041
0.852,0.234,0.394,0.16,-0.314,0.037,0.277,-0.043,0.299,0.469,0.726,0.792,0.523,0.494,0.222,0.039
0.853,0.243,0.399,0.155,-0.321,0.044,0.277,-0.048,0.295,0.466,0.726,0.793,0.524,0.497,0.221,0.042
0.854,0.236,0.394,0.158,-0.315,0.039,0.276,-0.05,0.29,0.463,0.723,0.789,0.522,0.493,0.223,0.042
0.855,0.233,0.397,0.165,-0.315,0.034,0.281,-0.046,0.292,0.465,0.722,0.788,0.524,0.492,0.222,0.042
0.856,0.232,0.4,0.168,-0.316,0.032,0.284,-0.042,0.29,0.466,0.723,0.787,0.527,0.493,0.229,0.041
0.857,0.225,0.391,0.166,-0.308,0.029,0.279,-0.043,0.283,0.46,0.715,0.778,0.519,0.487,0.225,0.041
0.858,0.221,0.385,0.165,-0.303,0.028,0.275,-0.046,0.275,0.451,0.703,0.768,0.51,0.48,0.224,0.041
0.859,0.225,0.385,0.16,-0.305,0.033,0.272,-0.046,0.272,0.45,0.698,0.765,0.51,0.481,0.225,0.042
0.86,0.233,0.392,0.159,-0.312,0.037,0.275,-0.04,0.273,0.454,0.695,0.764,0.505,0.476,0.222,0.045
0.861,0.234,0.392,0.158,-0.312,0.038,0.275,-0.03,0.279,0.458,0.7,0.761,0.503,0.47,0.217,0.044
0.862,0.228,0.383,0.154,-0.305,0.036,0.269,-0.026,0.28,0.457,0.697,0.755,0.501,0.464,0.208,0.046
0.863,0.215,0.372,0.157,-0.294,0.029,0.264,-0.022,0.279,0.455,0.69,0.746,0.493,0.454,0.206,0.044
0.864,0.203,0.361,0.158,-0.282,0.022,0.26,-0.015,0.276,0.452,0.681,0.737,0.486,0.444,0.205,0.042
0.865,0.196,0.346,0.15,-0.271,0.023,0.248,-0.011,0.273,0.446,0.668,0.719,0.472,0.43,0.195,0.043
0.866,0.206,0.344,0.138,-0.276,0.034,0.241,-0.005,0.274,0.446,0.663,0.711,0.467,0.425,0.188,0.043
0.867,0.208,0.344,0.136,-0.277,0.036,0.24,0.003,0.275,0.444,0.658,0.704,0.462,0.417,0.183,0.044
0.868,0.194,0.331,0.137,-0.262,0.029,0.234,0.009,0.276,0.44,0.648,0.691,0.452,0.403,0.175,0.043
0.869,0.187,0.321,0.134,-0.254,0.027,0.227,0.015,0.274,0.436,0.636,0.679,0.441,0.391,0.161,0.045
0.87,0.182,0.312,0.13,-0.247,0.026,0.221,0.024,0.273,0.432,0.625,0.664,0.428,0.38,0.153,0.042
0.871,0.181,0.3,0.119,-0.241,0.031,0.21,0.026,0.266,0.422,0.606,0.649,0.415,0.369,0.158,0.042
0.872,0.177,0.283,0.106,-0.23,0.035,0.195,0.025,0.257,0.409,0.585,0.628,0.396,0.355,0.148,0.044
0.873,0.174,0.271,0.097,-0.223,0.039,0.183,0.029,0.256,0.402,0.574,0.613,0.384,0.345,0.136,0.045
0.874,0.169,0.259,0.089,-0.213,0.04,0.174,0.04,0.256,0.399,0.564,0.599,0.373,0.333,0.126,0.046
0.875,0.161,0.245,0.085,-0.203,0.038,0.165,0.048,0.254,0.392,0.55,0.584,0.361,0.318,0.123,0.044
0.876,0.155,0.234,0.079,-0.194,0.038,0.156,0.051,0.252,0.387,0.537,0.571,0.348,0.307,0.117,0.044
0.877,0.151,0.218,0.068,-0.185,0.042,0.143,0.058,0.245,0.379,0.519,0.551,0.333,0.294,0.104,0.043
0.878,0.149,0.205,0.056,-0.177,0.047,0.131,0.062,0.239,0.368,0.501,0.533,0.317,0.282,0.102,0.047
0.879,0.145,0.191,0.045,-0.168,0.05,0.117,0.065,0.235,0.36,0.488,0.518,0.303,0.271,0.093,0.049
0.88,0.139,0.177,0.039,-0.158,0.05,0.108,0.07,0.234,0.353,0.475,0.504,0.291,0.256,0.084,0.048
0.881,0.133,0.172,0.038,-0.152,0.048,0.104,0.084,0.235,0.351,0.469,0.496,0.285,0.243,0.076,0.049
0.882,0.129,0.164,0.035,-0.146,0.048,0.099,0.092,0.235,0.349,0.464,0.487,0.281,0.234,0.067,0.049
0.883,0.124,0.154,0.029,-0.14,0.048,0.091,0.092,0.231,0.341,0.45,0.471,0.267,0.22,0.058,0.051
0.884,0.12,0.143,0.024,-0.132,0.048,0.084,0.099,0.229,0.333,0.436,0.457,0.255,0.208,0.051,0.049
0.885,0.113,0.132,0.019,-0.122,0.046,0.075,0.102,0.226,0.326,0.424,0.445,0.245,0.201,0.043,0.051
0.886,0.111,0.124,0.014,-0.117,0.048,0.07,0.105,0.223,0.321,0.413,0.433,0.236,0.193,0.036,0.054
0.887,0.107,0.117,0.011,-0.112,0.049,0.064,0.11,0.22,0.315,0.403,0.424,0.228,0.181,0.026,0.056
0.888,0.1,0.104,0.004,-0.102,0.048,0.054,0.114,0.215,0.308,0.392,0.412,0.217,0.169,0.012,0.058
0.889,0.098,0.101,0.002,-0.1,0.048,0.051,0.123,0.22,0.308,0.387,0.404,0.211,0.161,0.009,0.058
0.89,0.086,0.087,0.002,-0.086,0.042,0.045,0.127,0.215,0.297,0.373,0.389,0.2,0.149,0.005,0.059
0.891,0.084,0.074,-0.009,-0.079,0.046,0.033,0.123,0.205,0.285,0.354,0.374,0.187,0.141,-0.001,0.061
0.892,0.09,0.068,-0.022,-0.08,0.057,0.023,0.122,0.199,0.277,0.341,0.36,0.176,0.135,-0.009,0.065
0.893,0.081,0.053,-0.028,-0.067,0.054,0.013,0.122,0.191,0.269,0.33,0.349,0.168,0.125,-0.009,0.067
0.894,0.077,0.043,-0.035,-0.06,0.056,0.004,0.127,0.189,0.263,0.322,0.341,0.163,0.119,-0.017,0.067
0.895,0.076,0.036,-0.04,-0.056,0.058,-0.002,0.134,0.184,0.256,0.313,0.331,0.154,0.11,-0.025,0.07
0.896,0.072,0.028,-0.044,-0.05,0.059,-0.008,0.134,0.182,0.251,0.306,0.324,0.147,0.103,-0.032,0.073
0.897,0.068,0.015,-0.053,-0.041,0.06,-0.019,0.13,0.174,0.239,0.293,0.312,0.138,0.097,-0.037,0.074
0.898,0.069,0.006,-0.061,-0.037,0.065,-0.028,0.13,0.166,0.231,0.28,0.302,0.129,0.09,-0.04,0.076
0.899,0.069,-0.001,-0.07,-0.034,0.069,-0.035,0.128,0.161,0.221,0.268,0.291,0.121,0.086,-0.046,0.08
0.9,0.061,-0.011,-0.072,-0.025,0.067,-0.042,0.135,0.157,0.215,0.261,0.281,0.115,0.079,-0.049,0.082
0.901,0.056,-0.011,-0.067,-0.023,0.061,-0.039,0.146,0.162,0.218,0.264,0.281,0.116,0.073,-0.054,0.083
0.902,0.057,-0.013,-0.07,-0.021,0.064,-0.042,0.15,0.163,0.216,0.264,0.279,0.117,0.069,-0.067,0.084
0.903,0.058,-0.021,-0.079,-0.018,0.068,-0.05,0.148,0.156,0.209,0.255,0.27,0.111,0.062,-0.072,0.085
0.904,0.051,-0.027,-0.078,-0.012,0.065,-0.052,0.151,0.153,0.203,0.244,0.263,0.103,0.057,-0.074,0.086
0.905,0.049,-0.033,-0.082,-0.008,0.066,-0.057,0.152,0.148,0.198,0.234,0.255,0.095,0.05,-0.08,0.088
0.906,0.045,-0.039,-0.085,-0.004,0.065,-0.062,0.153,0.142,0.192,0.23,0.247,0.088,0.045,-0.08,0.092
0.907,0.042,-0.043,-0.086,0.001,0.064,-0.065,0.161,0.143,0.189,0.229,0.246,0.09,0.043,-0.083,0.093
0.908,0.034,-0.054,-0.087,0.01,0.06,-0.07,0.158,0.14,0.184,0.222,0.241,0.087,0.037,-0.095,0.095
0.909,0.032,-0.053,-0.085,0.011,0.059,-0.069,0.16,0.137,0.18,0.218,0.238,0.086,0.035,-0.097,0.097
0.91,0.043,-0.049,-0.091,0.003,0.067,-0.07,0.16,0.135,0.178,0.216,0.236,0.084,0.035,-0.097,0.098
0.911,0.043,-0.057,-0.1,0.007,0.071,-0.079,0.151,0.127,0.169,0.203,0.228,0.073,0.032,-0.097,0.1
0.912,0.035,-0.069,-0.103,0.017,0.07,-0.086,0.151,0.117,0.16,0.192,0.218,0.064,0.028,-0.099,0.1
0.913,0.028,-0.077,-0.106,0.025,0.067,-0.091,0.153,0.114,0.153,0.186,0.21,0.058,0.021,-0.106,0.101
0.914,0.034,-0.079,-0.113,0.022,0.073,-0.096,0.152,0.112,0.149,0.183,0.209,0.057,0.019,-0.108,0.105
0.915,0.04,-0.077,-0.117,0.018,0.078,-0.097,0.149,0.108,0.146,0.182,0.208,0.057,0.018,-0.105,0.107
0.916,0.033,-0.086,-0.119,0.026,0.076,-0.102,0.148,0.108,0.143,0.177,0.203,0.051,0.013,-0.114,0.106
0.917,0.022,-0.097,-0.119,0.037,0.071,-0.108,0.151,0.104,0.139,0.169,0.196,0.043,0.007,-0.117,0.104
0.918,0.028,-0.095,-0.122,0.034,0.075,-0.108,0.145,0.099,0.132,0.164,0.192,0.042,0.007,-0.11,0.106
0.919,0.03,-0.096,-0.126,0.033,0.078,-0.111,0.141,0.095,0.128,0.16,0.188,0.038,0.005,-0.113,0.11
0.92,0.028,-0.099,-0.126,0.035,0.077,-0.112,0.147,0.092,0.128,0.159,0.184,0.035,0.004,-0.119,0.111
0.921,0.028,-0.095,-0.122,0.034,0.075,-0.108,0.151,0.097,0.131,0.164,0.19,0.042,0.003,-0.117,0.112
0.922,0.018,-0.093,-0.111,0.037,0.064,-0.102,0.158,0.1,0.135,0.169,0.193,0.045,-0.001,-0.121,0.111
0.923,0.018,-0.094,-0.113,0.037,0.066,-0.103,0.158,0.099,0.136,0.166,0.192,0.043,-0.001,-0.122,0.112
0.924,0.021,-0.095,-0.116,0.037,0.069,-0.105,0.155,0.094,0.129,0.158,0.186,0.038,-0.003,-0.12,0.113
0.925,0.02,-0.1,-0.119,0.04,0.07,-0.11,0.153,0.092,0.124,0.155,0.183,0.036,-0.005,-0.131,0.114
0.926,0.022,-0.1,-0.122,0.039,0.072,-0.111,0.151,0.093,0.123,0.157,0.183,0.036,-0.004,-0.128,0.114
0.927,0.024,-0.097,-0.12,0.036,0.072,-0.108,0.156,0.091,0.121,0.157,0.182,0.038,-0.007,-0.129,0.117
0.928,0.019,-0.099,-0.118,0.04,0.069,-0.108,0.164,0.094,0.124,0.159,0.185,0.041,-0.009,-0.135,0.118
0.929,0.017,-0.096,-0.114,0.04,0.065,-0.105,0.165,0.092,0.124,0.16,0.186,0.042,-0.009,-0.134,0.118
0.93,0.013,-0.101,-0.114,0.044,0.064,-0.107,0.162,0.09,0.121,0.154,0.183,0.04,-0.011,-0.133,0.118
0.931,0.016,-0.105,-0.121,0.045,0.069,-0.114,0.155,0.088,0.116,0.145,0.178,0.034,-0.012,-0.131,0.117
0.932,0.026,-0.104,-0.131,0.04,0.079,-0.118,0.149,0.083,0.107,0.137,0.172,0.03,-0.01,-0.133,0.119
0.933,0.013,-0.116,-0.13,0.051,0.071,-0.122,0.152,0.077,0.104,0.133,0.165,0.024,-0.017,-0.132,0.12
0.934,0.017,-0.117,-0.134,0.051,0.075,-0.126,0.15,0.075,0.104,0.132,0.164,0.022,-0.017,-0.136,0.121
0.935,0.03,-0.108,-0.138,0.039,0.084,-0.123,0.149,0.077,0.106,0.134,0.168,0.028,-0.012,-0.141,0.124
0.936,0.024,-0.113,-0.136,0.044,0.08,-0.124,0.152,0.079,0.106,0.135,0.167,0.027,-0.014,-0.14,0.123
0.937,0.018,-0.117,-0.135,0.05,0.076,-0.126,0.157,0.079,0.104,0.133,0.164,0.023,-0.016,-0.138,0.12
0.938,0.018,-0.119,-0.137,0.051,0.077,-0.128,0.157,0.074,0.102,0.127,0.161,0.02,-0.018,-0.136,0.119
0.939,0.021,-0.121,-0.142,0.051,0.082,-0.132,0.15,0.071,0.098,0.122,0.157,0.015,-0.019,-0.138,0.122
0.94,0.026,-0.12,-0.145,0.047,0.086,-0.133,0.153,0.073,0.099,0.124,0.157,0.015,-0.018,-0.141,0.123
0.941,0.026,-0.117,-0.143,0.045,0.085,-0.13,0.152,0.078,0.102,0.132,0.161,0.02,-0.018,-0.142,0.125
0.942,0.025,-0.11,-0.134,0.043,0.08,-0.122,0.156,0.083,0.106,0.137,0.167,0.025,-0.019,-0.141,0.126
0.943,0.019,-0.112,-0.131,0.046,0.074,-0.121,0.16,0.082,0.106,0.135,0.166,0.025,-0.019,-0.141,0.124
0.944,0.018,-0.112,-0.13,0.048,0.073,-0.12,0.153,0.081,0.104,0.131,0.164,0.021,-0.019,-0.14,0.124
0.945,0.019,-0.113,-0.132,0.047,0.075,-0.122,0.152,0.08,0.104,0.132,0.163,0.021,-0.018,-0.142,0.124
0.946,0.015,-0.113,-0.129,0.049,0.072,-0.12,0.155,0.081,0.103,0.132,0.164,0.021,-0.019,-0.143,0.124
0.947,0.015,-0.112,-0.127,0.048,0.071,-0.119,0.158,0.082,0.104,0.132,0.164,0.024,-0.021,-0.142,0.126
0.948,0.012,-0.117,-0.129,0.052,0.07,-0.122,0.157,0.082,0.105,0.135,0.164,0.025,-0.021,-0.143,0.126
0.949,0.015,-0.113,-0.128,0.049,0.071,-0.12,0.16,0.085,0.11,0.138,0.167,0.029,-0.018,-0.145,0.126
0.95,0.014,-0.112,-0.126,0.049,0.07,-0.118,0.159,0.086,0.112,0.138,0.168,0.03,-0.018,-0.143,0.126
0.951,0.013,-0.116,-0.129,0.051,0.071,-0.122,0.148,0.081,0.104,0.129,0.163,0.024,-0.018,-0.139,0.127
0.952,0.024,-0.117,-0.141,0.046,0.083,-0.129,0.146,0.076,0.1,0.121,0.156,0.017,-0.018,-0.143,0.128
0.953,0.016,-0.122,-0.138,0.052,0.077,-0.13,0.148,0.071,0.096,0.12,0.153,0.014,-0.021,-0.142,0.129
0.954,0.015,-0.121,-0.136,0.053,0.075,-0.129,0.145,0.072,0.096,0.119,0.153,0.013,-0.021,-0.14,0.129
0.955,0.022,-0.115,-0.138,0.046,0.08,-0.126,0.148,0.074,0.096,0.118,0.154,0.015,-0.021,-0.141,0.129
0.956,0.024,-0.115,-0.138,0.045,0.081,-0.126,0.149,0.074,0.096,0.12,0.156,0.014,-0.021,-0.143,0.128
0.957,0.022,-0.121,-0.144,0.05,0.083,-0.133,0.149,0.076,0.095,0.12,0.155,0.013,-0.021,-0.142,0.122
0.958,0.017,-0.126,-0.142,0.055,0.08,-0.135,0.147,0.072,0.091,0.113,0.148,0.008,-0.026,-0.138,0.123
0.959,0.021,-0.126,-0.146,0.052,0.083,-0.136,0.144,0.069,0.088,0.109,0.146,0.005,-0.025,-0.137,0.126
0.96,0.018,-0.129,-0.146,0.056,0.082,-0.138,0.145,0.071,0.09,0.111,0.148,0.006,-0.025,-0.139,0.127
0.961,0.016,-0.123,-0.14,0.053,0.078,-0.132,0.149,0.079,0.097,0.121,0.156,0.012,-0.024,-0.142,0.127
0.962,0.022,-0.114,-0.136,0.046,0.079,-0.124,0.154,0.083,0.102,0.129,0.162,0.018,-0.019,-0.143,0.128
0.963,0.021,-0.117,-0.138,0.048,0.08,-0.127,0.155,0.08,0.1,0.126,0.158,0.017,-0.021,-0.141,0.127
0.964,0.015,-0.118,-0.134,0.051,0.074,-0.126,0.152,0.077,0.097,0.124,0.155,0.015,-0.021,-0.139,0.127
0.965,0.011,-0.118,-0.13,0.053,0.07,-0.124,0.15,0.08,0.099,0.123,0.153,0.015,-0.022,-0.142,0.128
0.966,0.015,-0.118,-0.134,0.051,0.074,-0.127,0.151,0.083,0.098,0.124,0.155,0.015,-0.023,-0.145,0.126
0.967,0.021,-0.115,-0.137,0.046,0.079,-0.126,0.155,0.083,0.101,0.126,0.157,0.019,-0.019,-0.145,0.129
0.968,0.018,-0.121,-0.139,0.051,0.078,-0.13,0.154,0.083,0.102,0.128,0.155,0.018,-0.021,-0.15,0.129
0.969,0.011,-0.121,-0.133,0.054,0.072,-0.127,0.157,0.087,0.102,0.13,0.158,0.018,-0.024,-0.147,0.125
0.97,0.019,-0.111,-0.13,0.046,0.074,-0.12,0.159,0.09,0.105,0.133,0.161,0.021,-0.021,-0.145,0.122
0.971,0.021,-0.113,-0.133,0.046,0.076,-0.122,0.152,0.083,0.1,0.125,0.156,0.017,-0.02,-0.141,0.122
0.972,0.02,-0.115,-0.135,0.048,0.077,-0.124,0.149,0.079,0.095,0.117,0.153,0.013,-0.019,-0.138,0.122
0.973,0.021,-0.117,-0.138,0.048,0.08,-0.127,0.149,0.079,0.096,0.119,0.151,0.009,-0.022,-0.142,0.122
0.974,0.024,-0.118,-0.141,0.048,0.083,-0.13,0.148,0.08,0.099,0.119,0.151,0.011,-0.021,-0.141,0.123
0.975,0.018,-0.118,-0.136,0.051,0.076,-0.127,0.149,0.079,0.096,0.117,0.151,0.011,-0.022,-0.137,0.124
0.976,0.017,-0.117,-0.134,0.05,0.075,-0.126,0.148,0.078,0.096,0.119,0.151,0.009,-0.025,-0.138,0.123
0.977,0.025,-0.116,-0.14,0.046,0.082,-0.128,0.143,0.079,0.096,0.118,0.151,0.008,-0.02,-0.142,0.122
0.978,0.022,-0.117,-0.139,0.048,0.081,-0.128,0.145,0.076,0.092,0.113,0.147,0.004,-0.022,-0.137,0.123
0.979,0.028,-0.114,-0.141,0.043,0.084,-0.127,0.143,0.076,0.092,0.113,0.147,0.005,-0.02,-0.128,0.124
0.98,0.029,-0.116,-0.144,0.043,0.086,-0.13,0.136,0.073,0.088,0.112,0.146,0.005,-0.02,-0.133,0.126
0.981,0.024,-0.117,-0.141,0.047,0.082,-0.129,0.146,0.076,0.092,0.118,0.147,0.007,-0.024,-0.141,0.126
0.982,0.021,-0.109,-0.13,0.044,0.075,-0.119,0.153,0.084,0.099,0.127,0.155,0.015,-0.021,-0.137,0.123
0.983,0.022,-0.107,-0.131,0.043,0.076,-0.119,0.148,0.086,0.101,0.127,0.159,0.019,-0.018,-0.133,0.123
0.984,0.024,-0.105,-0.129,0.041,0.075,-0.117,0.15,0.086,0.102,0.124,0.16,0.018,-0.017,-0.137,0.123
0.985,0.019,-0.108,-0.127,0.044,0.073,-0.117,0.151,0.087,0.102,0.125,0.16,0.017,-0.018,-0.14,0.122
0.986,0.018,-0.111,-0.129,0.046,0.073,-0.12,0.15,0.087,0.102,0.126,0.158,0.017,-0.018,-0.137,0.123
0.987,0.02,-0.106,-0.126,0.043,0.073,-0.117,0.153,0.086,0.1,0.127,0.159,0.021,-0.017,-0.139,0.124
0.988,0.022,-0.104,-0.127,0.042,0.074,-0.116,0.155,0.09,0.104,0.132,0.165,0.026,-0.015,-0.142,0.124
0.989,0.021,-0.102,-0.122,0.041,0.071,-0.113,0.155,0.093,0.108,0.134,0.167,0.026,-0.016,-0.139,0.123
0.99,0.021,-0.102,-0.122,0.04,0.072,-0.112,0.151,0.091,0.107,0.131,0.165,0.024,-0.016,-0.14,0.123
0.991,0.019,-0.104,-0.123,0.043,0.071,-0.114,0.146,0.085,0.102,0.121,0.16,0.019,-0.017,-0.135,0.123
0.992,0.013,-0.111,-0.124,0.049,0.069,-0.117,0.144,0.08,0.096,0.117,0.155,0.017,-0.017,-0.132,0.123
0.993,0.025,-0.107,-0.132,0.042,0.078,-0.119,0.14,0.081,0.098,0.12,0.158,0.02,-0.013,-0.137,0.125
0.994,0.035,-0.101,-0.136,0.034,0.086,-0.118,0.134,0.079,0.097,0.119,0.158,0.019,-0.011,-0.135,0.128
0.995,0.028,-0.101,-0.129,0.036,0.079,-0.115,0.136,0.077,0.096,0.118,0.156,0.018,-0.011,-0.129,0.128
0.996,0.029,-0.1,-0.128,0.035,0.079,-0.114,0.135,0.077,0.096,0.119,0.156,0.019,-0.011,-0.131,0.128
0.997,0.026,-0.105,-0.132,0.04,0.079,-0.118,0.134,0.075,0.095,0.116,0.153,0.016,-0.01,-0.128,0.123
0.998,0.026,-0.104,-0.131,0.039,0.079,-0.117,0.134,0.074,0.093,0.117,0.153,0.015,-0.011,-0.124,0.124
0.999,0.027,-0.106,-0.134,0.04,0.081,-0.12,0.132,0.073,0.09,0.116,0.153,0.016,-0.009,-0.126,0.125
1,0.024,-0.107,-0.132,0.042,0.078,-0.119,0.132,0.072,0.09,0.117,0.154,0.017,-0.009,-0.124,0.126
1.001,0.03,-0.101,-0.131,0.035,0.081,-0.116,0.132,0.078,0.096,0.124,0.158,0.023,-0.005,-0.127,0.127
1.002,0.029,-0.095,-0.122,0.033,0.075,-0.108,0.142,0.084,0.101,0.131,0.165,0.029,-0.004,-0.13,0.125
1.003,0.024,-0.089,-0.113,0.033,0.069,-0.101,0.147,0.086,0.102,0.132,0.168,0.03,-0.007,-0.125,0.122
1.004,0.029,-0.086,-0.114,0.029,0.071,-0.1,0.145,0.086,0.103,0.131,0.168,0.03,-0.006,-0.123,0.121
1.005,0.026,-0.089,-0.116,0.031,0.071,-0.102,0.145,0.085,0.103,0.132,0.168,0.03,-0.005,-0.126,0.122
1.006,0.024,-0.091,-0.114,0.034,0.069,-0.102,0.144,0.083,0.103,0.131,0.168,0.03,-0.006,-0.121,0.121
1.007,0.023,-0.089,-0.113,0.034,0.068,-0.101,0.141,0.081,0.102,0.13,0.17,0.033,-0.005,-0.119,0.123
1.008,0.021,-0.087,-0.108,0.033,0.065,-0.098,0.145,0.084,0.106,0.133,0.172,0.036,-0.004,-0.125,0.125
1.009,0.022,-0.083,-0.104,0.03,0.063,-0.093,0.144,0.085,0.107,0.135,0.174,0.035,-0.004,-0.124,0.124
1.01,0.025,-0.077,-0.103,0.026,0.064,-0.09,0.142,0.085,0.106,0.135,0.176,0.037,-0.001,-0.123,0.124
1.011,0.025,-0.081,-0.105,0.028,0.065,-0.092,0.138,0.076,0.101,0.127,0.17,0.032,0,-0.118,0.126
1.012,0.028,-0.086,-0.113,0.029,0.07,-0.099,0.128,0.066,0.091,0.116,0.162,0.022,-0.001,-0.119,0.13
1.013,0.03,-0.083,-0.114,0.026,0.072,-0.098,0.13,0.07,0.098,0.119,0.167,0.029,0.003,-0.117,0.129
1.014,0.027,-0.087,-0.114,0.03,0.07,-0.1,0.132,0.071,0.1,0.122,0.168,0.03,0.002,-0.116,0.129
1.015,0.03,-0.085,-0.116,0.027,0.073,-0.1,0.132,0.068,0.093,0.12,0.166,0.028,0.001,-0.115,0.132
1.016,0.031,-0.085,-0.116,0.027,0.073,-0.1,0.13,0.067,0.092,0.117,0.165,0.026,0.001,-0.114,0.132
1.017,0.022,-0.093,-0.115,0.035,0.069,-0.104,0.131,0.066,0.091,0.116,0.162,0.021,-0.004,-0.117,0.128
1.018,0.021,-0.091,-0.113,0.035,0.067,-0.102,0.131,0.065,0.09,0.115,0.161,0.021,-0.004,-0.11,0.127
1.019,0.03,-0.086,-0.117,0.029,0.073,-0.102,0.126,0.065,0.089,0.111,0.161,0.019,-0.002,-0.112,0.13
1.02,0.033,-0.089,-0.122,0.029,0.077,-0.105,0.12,0.061,0.086,0.108,0.159,0.018,-0.003,-0.118,0.133
1.021,0.035,-0.084,-0.118,0.024,0.077,-0.101,0.126,0.064,0.09,0.117,0.163,0.024,-0.002,-0.116,0.132
1.022,0.032,-0.076,-0.108,0.021,0.07,-0.092,0.134,0.072,0.095,0.124,0.168,0.032,-0.002,-0.113,0.131
1.023,0.024,-0.079,-0.102,0.028,0.063,-0.09,0.132,0.07,0.091,0.122,0.165,0.03,-0.005,-0.114,0.131
1.024,0.028,-0.074,-0.102,0.023,0.065,-0.088,0.136,0.07,0.094,0.123,0.17,0.032,-0.002,-0.11,0.128
1.025,0.029,-0.072,-0.101,0.021,0.065,-0.086,0.134,0.072,0.097,0.125,0.173,0.036,0.002,-0.11,0.128
1.026,0.03,-0.072,-0.102,0.021,0.066,-0.087,0.134,0.071,0.095,0.123,0.173,0.035,0.001,-0.114,0.129
1.027,0.029,-0.07,-0.099,0.02,0.064,-0.084,0.136,0.07,0.099,0.127,0.176,0.037,0.001,-0.111,0.129
1.028,0.025,-0.068,-0.092,0.021,0.059,-0.08,0.137,0.072,0.1,0.13,0.177,0.038,0.001,-0.11,0.129
1.029,0.021,-0.068,-0.089,0.024,0.055,-0.079,0.135,0.071,0.099,0.13,0.177,0.037,-0.001,-0.111,0.129
1.03,0.024,-0.067,-0.09,0.021,0.057,-0.079,0.129,0.07,0.099,0.13,0.178,0.038,0.002,-0.112,0.129
1.031,0.03,-0.064,-0.093,0.017,0.062,-0.078,0.131,0.067,0.094,0.126,0.175,0.035,0.002,-0.104,0.128
1.032,0.034,-0.065,-0.098,0.015,0.066,-0.081,0.127,0.06,0.089,0.12,0.172,0.031,0.001,-0.1,0.127
1.033,0.035,-0.065,-0.1,0.015,0.068,-0.083,0.124,0.06,0.086,0.118,0.171,0.031,0.001,-0.102,0.13
1.034,0.029,-0.071,-0.102,0.021,0.066,-0.086,0.127,0.059,0.085,0.118,0.172,0.032,0.001,-0.105,0.13
1.035,0.035,-0.07,-0.104,0.018,0.07,-0.087,0.122,0.059,0.086,0.121,0.176,0.036,0.005,-0.103,0.131
1.036,0.033,-0.069,-0.102,0.018,0.068,-0.086,0.127,0.059,0.088,0.123,0.174,0.036,0.004,-0.099,0.131
1.037,0.032,-0.074,-0.105,0.021,0.069,-0.09,0.125,0.059,0.086,0.121,0.172,0.033,0.004,-0.104,0.128
1.038,0.037,-0.072,-0.11,0.018,0.073,-0.091,0.121,0.057,0.084,0.119,0.174,0.035,0.009,-0.104,0.131
1.039,0.032,-0.075,-0.107,0.021,0.07,-0.091,0.122,0.057,0.086,0.12,0.173,0.034,0.007,-0.102,0.132
1.04,0.032,-0.078,-0.11,0.023,0.071,-0.094,0.119,0.058,0.086,0.12,0.172,0.031,0.005,-0.101,0.131
1.041,0.03,-0.076,-0.107,0.023,0.069,-0.091,0.122,0.059,0.086,0.121,0.172,0.035,0.004,-0.104,0.133
1.042,0.033,-0.069,-0.101,0.018,0.067,-0.085,0.13,0.066,0.091,0.129,0.176,0.04,0.003,-0.109,0.133
1.043,0.038,-0.06,-0.099,0.011,0.068,-0.079,0.133,0.065,0.092,0.13,0.176,0.039,0.002,-0.105,0.133
1.044,0.036,-0.062,-0.099,0.013,0.068,-0.081,0.128,0.065,0.092,0.13,0.176,0.04,0.005,-0.104,0.132
1.045,0.033,-0.067,-0.1,0.017,0.067,-0.084,0.127,0.063,0.091,0.129,0.176,0.037,0.004,-0.11,0.132
1.046,0.034,-0.064,-0.098,0.015,0.066,-0.081,0.126,0.06,0.087,0.128,0.174,0.038,0.004,-0.111,0.135
1.047,0.032,-0.061,-0.093,0.015,0.062,-0.077,0.128,0.062,0.09,0.13,0.177,0.042,0.005,-0.106,0.136
1.048,0.034,-0.057,-0.09,0.011,0.062,-0.073,0.134,0.063,0.093,0.133,0.181,0.044,0.005,-0.105,0.134
1.049,0.033,-0.057,-0.09,0.012,0.061,-0.073,0.13,0.062,0.09,0.131,0.18,0.045,0.006,-0.106,0.134
1.05,0.025,-0.059,-0.085,0.018,0.054,-0.072,0.13,0.06,0.089,0.128,0.178,0.043,0.004,-0.107,0.134
1.051,0.025,-0.058,-0.083,0.016,0.054,-0.07,0.13,0.055,0.084,0.124,0.174,0.037,0.005,-0.102,0.131
1.052,0.031,-0.061,-0.092,0.015,0.061,-0.077,0.122,0.049,0.077,0.117,0.17,0.034,0.005,-0.099,0.133
1.053,0.031,-0.064,-0.095,0.017,0.063,-0.079,0.121,0.046,0.077,0.117,0.17,0.034,0.005,-0.099,0.134
1.054,0.036,-0.06,-0.097,0.012,0.067,-0.079,0.121,0.047,0.077,0.119,0.17,0.036,0.007,-0.1,0.135
1.055,0.042,-0.058,-0.1,0.008,0.071,-0.079,0.12,0.047,0.076,0.118,0.168,0.037,0.009,-0.101,0.138
1.056,0.032,-0.062,-0.095,0.015,0.064,-0.079,0.12,0.046,0.077,0.119,0.169,0.035,0.007,-0.1,0.137
1.057,0.028,-0.07,-0.098,0.021,0.062,-0.084,0.117,0.044,0.074,0.116,0.166,0.031,0.004,-0.105,0.136
1.058,0.034,-0.072,-0.105,0.019,0.07,-0.088,0.113,0.04,0.07,0.114,0.164,0.029,0.004,-0.102,0.135
1.059,0.037,-0.074,-0.111,0.018,0.074,-0.092,0.111,0.038,0.069,0.113,0.164,0.027,0.004,-0.1,0.135
1.06,0.034,-0.075,-0.11,0.021,0.072,-0.093,0.113,0.042,0.07,0.116,0.166,0.029,0.003,-0.101,0.135
1.061,0.032,-0.07,-0.102,0.019,0.067,-0.086,0.113,0.048,0.076,0.124,0.173,0.036,0.005,-0.103,0.138
1.062,0.035,-0.065,-0.101,0.015,0.068,-0.083,0.118,0.05,0.079,0.126,0.172,0.036,0.003,-0.108,0.139
1.063,0.039,-0.058,-0.098,0.009,0.068,-0.078,0.128,0.05,0.081,0.125,0.172,0.037,0.002,-0.102,0.137
1.064,0.037,-0.057,-0.093,0.009,0.065,-0.075,0.124,0.049,0.08,0.123,0.173,0.038,0.003,-0.099,0.137
1.065,0.03,-0.064,-0.095,0.017,0.063,-0.08,0.122,0.048,0.078,0.122,0.169,0.036,0.001,-0.102,0.135
1.066,0.025,-0.07,-0.096,0.022,0.06,-0.083,0.126,0.047,0.079,0.123,0.17,0.036,-0.001,-0.105,0.135
1.067,0.031,-0.064,-0.095,0.016,0.063,-0.079,0.124,0.049,0.079,0.126,0.172,0.037,0.001,-0.107,0.14
1.068,0.029,-0.065,-0.092,0.018,0.06,-0.079,0.122,0.05,0.081,0.127,0.173,0.04,0.001,-0.107,0.141
1.069,0.021,-0.067,-0.088,0.023,0.054,-0.077,0.126,0.052,0.083,0.129,0.176,0.042,0.001,-0.107,0.138
1.07,0.024,-0.063,-0.087,0.019,0.056,-0.075,0.127,0.051,0.082,0.129,0.176,0.041,0.001,-0.108,0.139
1.071,0.024,-0.067,-0.09,0.021,0.057,-0.079,0.12,0.043,0.071,0.118,0.17,0.036,0,-0.107,0.138
1.072,0.025,-0.069,-0.093,0.022,0.059,-0.081,0.117,0.038,0.067,0.113,0.165,0.033,0.001,-0.102,0.138
1.073,0.027,-0.071,-0.099,0.022,0.062,-0.085,0.111,0.037,0.067,0.111,0.165,0.03,-0.001,-0.105,0.14
1.074,0.028,-0.073,-0.101,0.022,0.065,-0.087,0.109,0.036,0.066,0.111,0.165,0.03,0.001,-0.11,0.141
1.075,0.031,-0.07,-0.101,0.019,0.066,-0.085,0.116,0.038,0.068,0.114,0.168,0.034,0.003,-0.107,0.142
1.076,0.032,-0.071,-0.103,0.02,0.068,-0.087,0.117,0.04,0.066,0.113,0.166,0.034,0.003,-0.105,0.139
1.077,0.025,-0.078,-0.103,0.026,0.065,-0.091,0.115,0.038,0.064,0.111,0.162,0.029,0.001,-0.106,0.135
1.078,0.025,-0.081,-0.105,0.029,0.065,-0.093,0.109,0.034,0.058,0.105,0.157,0.024,-0.002,-0.107,0.138
1.079,0.026,-0.084,-0.11,0.029,0.068,-0.097,0.105,0.031,0.054,0.1,0.151,0.019,-0.003,-0.107,0.141
1.08,0.027,-0.084,-0.111,0.029,0.069,-0.098,0.107,0.029,0.053,0.098,0.15,0.018,-0.004,-0.106,0.141
1.081,0.032,-0.077,-0.11,0.022,0.071,-0.093,0.113,0.034,0.059,0.106,0.156,0.025,-0.003,-0.11,0.14
1.082,0.029,-0.074,-0.103,0.022,0.066,-0.088,0.118,0.038,0.065,0.113,0.163,0.03,-0.002,-0.112,0.139
1.083,0.025,-0.071,-0.096,0.023,0.06,-0.084,0.117,0.036,0.064,0.111,0.162,0.029,-0.003,-0.112,0.139
1.084,0.022,-0.068,-0.09,0.023,0.056,-0.079,0.117,0.037,0.064,0.109,0.161,0.028,-0.006,-0.111,0.139
1.085,0.02,-0.073,-0.093,0.026,0.057,-0.083,0.118,0.036,0.064,0.109,0.16,0.026,-0.006,-0.113,0.138
1.086,0.025,-0.074,-0.099,0.025,0.061,-0.086,0.121,0.037,0.062,0.111,0.16,0.026,-0.005,-0.114,0.138
1.087,0.028,-0.069,-0.096,0.021,0.062,-0.083,0.123,0.039,0.063,0.112,0.165,0.032,-0.003,-0.11,0.141
1.088,0.024,-0.069,-0.092,0.022,0.058,-0.081,0.128,0.042,0.067,0.117,0.165,0.035,-0.004,-0.112,0.139
1.089,0.021,-0.07,-0.09,0.025,0.056,-0.08,0.127,0.042,0.068,0.117,0.166,0.035,-0.004,-0.113,0.139
1.09,0.025,-0.068,-0.093,0.021,0.059,-0.081,0.123,0.04,0.066,0.116,0.165,0.034,-0.004,-0.112,0.139
1.091,0.024,-0.072,-0.096,0.024,0.06,-0.084,0.118,0.034,0.059,0.106,0.157,0.026,-0.007,-0.113,0.138
1.092,0.019,-0.079,-0.098,0.03,0.059,-0.088,0.114,0.028,0.051,0.098,0.151,0.021,-0.009,-0.109,0.139
1.093,0.022,-0.08,-0.102,0.029,0.062,-0.09,0.116,0.029,0.054,0.101,0.154,0.022,-0.009,-0.112,0.139
1.094,0.029,-0.077,-0.107,0.024,0.068,-0.092,0.114,0.03,0.054,0.101,0.154,0.022,-0.007,-0.117,0.141
1.095,0.032,-0.077,-0.108,0.023,0.07,-0.093,0.112,0.028,0.054,0.1,0.154,0.024,-0.007,-0.112,0.143
1.096,0.03,-0.079,-0.108,0.025,0.069,-0.093,0.114,0.028,0.053,0.1,0.155,0.025,-0.006,-0.112,0.141
1.097,0.022,-0.087,-0.11,0.032,0.066,-0.099,0.112,0.024,0.049,0.094,0.149,0.021,-0.009,-0.112,0.139
1.098,0.026,-0.086,-0.112,0.03,0.069,-0.099,0.109,0.021,0.05,0.093,0.148,0.022,-0.006,-0.11,0.14
1.099,0.028,-0.086,-0.114,0.029,0.07,-0.1,0.105,0.019,0.048,0.092,0.148,0.021,-0.005,-0.11,0.142
1.1,0.025,-0.091,-0.117,0.033,0.07,-0.104,0.105,0.019,0.048,0.093,0.145,0.018,-0.007,-0.112,0.144
1.101,0.032,-0.087,-0.118,0.028,0.075,-0.103,0.111,0.026,0.056,0.102,0.152,0.026,-0.004,-0.118,0.145
1.102,0.027,-0.086,-0.113,0.029,0.07,-0.1,0.117,0.03,0.06,0.106,0.156,0.029,-0.006,-0.121,0.143
1.103,0.029,-0.082,-0.111,0.026,0.07,-0.096,0.119,0.031,0.06,0.106,0.158,0.029,-0.005,-0.118,0.141
1.104,0.033,-0.075,-0.108,0.021,0.07,-0.091,0.117,0.029,0.059,0.104,0.158,0.03,-0.004,-0.112,0.141
1.105,0.022,-0.085,-0.106,0.031,0.065,-0.096,0.121,0.029,0.06,0.104,0.154,0.028,-0.007,-0.117,0.141
1.106,0.017,-0.09,-0.106,0.036,0.061,-0.098,0.123,0.029,0.059,0.104,0.153,0.028,-0.009,-0.12,0.142
1.107,0.015,-0.087,-0.103,0.035,0.059,-0.095,0.122,0.032,0.058,0.104,0.154,0.026,-0.011,-0.12,0.144
1.108,0.021,-0.085,-0.105,0.032,0.063,-0.095,0.126,0.035,0.061,0.108,0.154,0.028,-0.011,-0.126,0.145
1.109,0.022,-0.085,-0.106,0.031,0.064,-0.095,0.126,0.035,0.063,0.11,0.157,0.03,-0.01,-0.126,0.144
1.11,0.015,-0.087,-0.102,0.036,0.059,-0.095,0.124,0.035,0.06,0.107,0.155,0.028,-0.011,-0.125,0.144
1.111,0.021,-0.087,-0.108,0.034,0.065,-0.098,0.121,0.029,0.056,0.101,0.148,0.022,-0.015,-0.121,0.142
1.112,0.025,-0.088,-0.113,0.032,0.069,-0.1,0.117,0.024,0.05,0.095,0.143,0.017,-0.015,-0.119,0.143
1.113,0.028,-0.089,-0.117,0.03,0.072,-0.102,0.113,0.022,0.049,0.097,0.143,0.018,-0.013,-0.12,0.144
1.114,0.026,-0.09,-0.116,0.032,0.071,-0.103,0.112,0.022,0.048,0.096,0.144,0.017,-0.013,-0.12,0.145
1.115,0.025,-0.088,-0.113,0.032,0.069,-0.1,0.114,0.022,0.048,0.096,0.144,0.019,-0.013,-0.12,0.145
1.116,0.028,-0.089,-0.117,0.031,0.072,-0.103,0.113,0.021,0.049,0.098,0.144,0.02,-0.013,-0.12,0.144
1.117,0.024,-0.092,-0.116,0.035,0.07,-0.104,0.109,0.018,0.045,0.09,0.141,0.016,-0.014,-0.121,0.143
1.118,0.026,-0.092,-0.118,0.033,0.072,-0.105,0.106,0.013,0.041,0.086,0.137,0.012,-0.013,-0.119,0.146
1.119,0.025,-0.095,-0.12,0.035,0.073,-0.107,0.105,0.011,0.037,0.083,0.135,0.009,-0.015,-0.117,0.146
1.12,0.022,-0.097,-0.119,0.037,0.071,-0.108,0.106,0.011,0.038,0.083,0.135,0.009,-0.017,-0.117,0.143
1.121,0.022,-0.096,-0.118,0.037,0.07,-0.107,0.112,0.015,0.043,0.088,0.138,0.013,-0.018,-0.119,0.144
1.122,0.019,-0.095,-0.114,0.037,0.067,-0.104,0.118,0.022,0.049,0.096,0.145,0.019,-0.016,-0.125,0.145
1.123,0.018,-0.093,-0.111,0.037,0.065,-0.102,0.119,0.026,0.052,0.1,0.147,0.019,-0.015,-0.128,0.144
1.124,0.018,-0.086,-0.105,0.034,0.061,-0.096,0.118,0.025,0.051,0.099,0.144,0.019,-0.018,-0.121,0.144
1.125,0.018,-0.089,-0.107,0.035,0.062,-0.099,0.112,0.023,0.048,0.097,0.144,0.017,-0.018,-0.121,0.144
1.126,0.019,-0.092,-0.112,0.036,0.065,-0.102,0.113,0.021,0.049,0.097,0.144,0.015,-0.016,-0.123,0.145
1.127,0.022,-0.087,-0.11,0.033,0.066,-0.099,0.118,0.022,0.051,0.099,0.147,0.02,-0.015,-0.123,0.148
1.128,0.024,-0.086,-0.11,0.031,0.067,-0.098,0.118,0.024,0.052,0.102,0.147,0.022,-0.013,-0.126,0.147
1.129,0.025,-0.081,-0.106,0.028,0.066,-0.093,0.12,0.025,0.054,0.105,0.15,0.023,-0.013,-0.128,0.145
1.13,0.025,-0.076,-0.102,0.025,0.063,-0.089,0.121,0.027,0.056,0.104,0.151,0.023,-0.012,-0.124,0.145
1.131,0.025,-0.079,-0.103,0.028,0.064,-0.091,0.118,0.021,0.049,0.096,0.143,0.018,-0.014,-0.118,0.143
1.132,0.029,-0.084,-0.112,0.028,0.07,-0.098,0.115,0.014,0.041,0.087,0.139,0.011,-0.015,-0.119,0.143
1.133,0.026,-0.089,-0.116,0.032,0.071,-0.102,0.115,0.015,0.043,0.087,0.138,0.009,-0.017,-0.12,0.144
1.134,0.021,-0.096,-0.117,0.037,0.07,-0.106,0.117,0.017,0.045,0.091,0.138,0.012,-0.017,-0.125,0.144
1.135,0.03,-0.09,-0.12,0.03,0.075,-0.105,0.118,0.019,0.045,0.093,0.141,0.015,-0.015,-0.123,0.143
1.136,0.029,-0.086,-0.117,0.029,0.073,-0.102,0.121,0.021,0.047,0.094,0.144,0.017,-0.016,-0.117,0.141
1.137,0.028,-0.089,-0.117,0.031,0.072,-0.103,0.12,0.018,0.048,0.091,0.143,0.013,-0.018,-0.119,0.138
1.138,0.032,-0.089,-0.121,0.029,0.076,-0.105,0.118,0.018,0.046,0.09,0.142,0.011,-0.018,-0.117,0.137
1.139,0.031,-0.088,-0.119,0.029,0.075,-0.104,0.115,0.019,0.047,0.09,0.143,0.01,-0.018,-0.115,0.137
1.14,0.034,-0.084,-0.117,0.025,0.075,-0.101,0.115,0.022,0.051,0.093,0.144,0.011,-0.018,-0.109,0.135
1.141,0.035,-0.074,-0.11,0.02,0.072,-0.092,0.124,0.029,0.059,0.102,0.151,0.019,-0.013,-0.103,0.133
1.142,0.034,-0.066,-0.1,0.016,0.067,-0.083,0.128,0.035,0.066,0.11,0.157,0.027,-0.011,-0.105,0.133
1.143,0.033,-0.06,-0.093,0.013,0.063,-0.076,0.13,0.037,0.067,0.112,0.16,0.029,-0.012,-0.102,0.131
1.144,0.029,-0.054,-0.084,0.013,0.057,-0.069,0.131,0.038,0.068,0.111,0.159,0.028,-0.013,-0.095,0.129
1.145,0.029,-0.049,-0.077,0.01,0.053,-0.062,0.136,0.045,0.073,0.116,0.161,0.029,-0.013,-0.089,0.127
1.146,0.035,-0.041,-0.076,0.003,0.056,-0.058,0.138,0.05,0.078,0.121,0.165,0.035,-0.01,-0.086,0.124
1.147,0.039,-0.032,-0.071,-0.004,0.055,-0.051,0.141,0.053,0.082,0.124,0.169,0.038,-0.009,-0.082,0.126
1.148,0.035,-0.026,-0.061,-0.005,0.049,-0.043,0.146,0.058,0.089,0.131,0.172,0.042,-0.009,-0.076,0.123
1.149,0.037,-0.019,-0.057,-0.009,0.048,-0.038,0.145,0.059,0.089,0.133,0.176,0.044,-0.005,-0.075,0.123
1.15,0.039,-0.018,-0.056,-0.011,0.048,-0.036,0.147,0.06,0.089,0.133,0.178,0.045,-0.003,-0.075,0.126
1.151,0.035,-0.022,-0.057,-0.006,0.046,-0.04,0.141,0.051,0.082,0.124,0.17,0.038,-0.007,-0.071,0.126
1.152,0.038,-0.025,-0.064,-0.006,0.051,-0.044,0.137,0.045,0.075,0.117,0.163,0.032,-0.008,-0.07,0.127
1.153,0.035,-0.028,-0.064,-0.004,0.05,-0.046,0.141,0.046,0.078,0.117,0.166,0.032,-0.008,-0.07,0.125
1.154,0.034,-0.029,-0.063,-0.003,0.049,-0.046,0.144,0.045,0.077,0.117,0.165,0.033,-0.009,-0.071,0.125
1.155,0.035,-0.024,-0.059,-0.006,0.047,-0.041,0.143,0.045,0.077,0.118,0.164,0.035,-0.008,-0.066,0.126
1.156,0.029,-0.023,-0.052,-0.003,0.041,-0.037,0.147,0.048,0.079,0.118,0.164,0.034,-0.009,-0.066,0.124
1.157,0.029,-0.026,-0.055,-0.001,0.042,-0.041,0.146,0.047,0.078,0.115,0.161,0.032,-0.009,-0.065,0.122
1.158,0.028,-0.025,-0.053,-0.001,0.041,-0.04,0.145,0.045,0.077,0.112,0.16,0.03,-0.009,-0.059,0.119
1.159,0.025,-0.025,-0.051,0,0.038,-0.038,0.146,0.046,0.077,0.114,0.161,0.031,-0.007,-0.056,0.117
1.16,0.035,-0.02,-0.054,-0.007,0.044,-0.037,0.147,0.05,0.082,0.118,0.165,0.033,-0.005,-0.053,0.116
1.161,0.035,-0.013,-0.049,-0.011,0.043,-0.032,0.153,0.058,0.089,0.127,0.171,0.038,-0.004,-0.06,0.115
1.162,0.032,-0.007,-0.039,-0.012,0.035,-0.023,0.158,0.065,0.097,0.135,0.176,0.043,-0.003,-0.057,0.114
1.163,0.03,-0.003,-0.034,-0.013,0.032,-0.018,0.162,0.07,0.102,0.138,0.18,0.045,-0.003,-0.051,0.109
1.164,0.033,0.003,-0.03,-0.018,0.032,-0.014,0.159,0.071,0.103,0.14,0.18,0.045,-0.003,-0.047,0.107
1.165,0.036,0.009,-0.026,-0.023,0.031,-0.009,0.162,0.078,0.11,0.143,0.184,0.046,-0.002,-0.038,0.104
1.166,0.035,0.013,-0.022,-0.024,0.028,-0.004,0.166,0.082,0.116,0.146,0.186,0.049,0,-0.036,0.103
1.167,0.041,0.021,-0.02,-0.031,0.03,0.001,0.165,0.082,0.117,0.149,0.19,0.055,0.005,-0.036,0.106
1.168,0.038,0.026,-0.012,-0.032,0.025,0.007,0.169,0.088,0.124,0.156,0.196,0.059,0.006,-0.034,0.102
1.169,0.036,0.032,-0.004,-0.034,0.02,0.014,0.171,0.092,0.129,0.161,0.201,0.062,0.008,-0.033,0.099
1.17,0.041,0.035,-0.005,-0.038,0.023,0.015,0.166,0.092,0.129,0.161,0.202,0.066,0.01,-0.032,0.1
1.171,0.043,0.032,-0.011,-0.038,0.027,0.011,0.154,0.086,0.124,0.153,0.198,0.062,0.011,-0.028,0.103
1.172,0.044,0.029,-0.015,-0.036,0.029,0.007,0.149,0.079,0.118,0.146,0.194,0.057,0.009,-0.025,0.105
1.173,0.041,0.024,-0.017,-0.032,0.029,0.004,0.151,0.078,0.117,0.146,0.193,0.059,0.009,-0.025,0.108
1.174,0.043,0.021,-0.022,-0.032,0.033,-0.001,0.148,0.076,0.117,0.148,0.194,0.06,0.011,-0.029,0.113
1.175,0.046,0.022,-0.024,-0.034,0.035,-0.001,0.141,0.072,0.114,0.148,0.196,0.062,0.01,-0.025,0.117
1.176,0.049,0.028,-0.021,-0.038,0.035,0.004,0.138,0.072,0.115,0.149,0.197,0.064,0.011,-0.023,0.119
1.177,0.048,0.026,-0.022,-0.037,0.035,0.002,0.132,0.068,0.112,0.144,0.192,0.058,0.01,-0.024,0.119
1.178,0.051,0.025,-0.026,-0.038,0.039,-0.001,0.126,0.064,0.108,0.14,0.188,0.056,0.01,-0.022,0.122
1.179,0.055,0.025,-0.03,-0.04,0.043,-0.003,0.124,0.061,0.104,0.137,0.186,0.053,0.011,-0.022,0.123
1.18,0.054,0.024,-0.03,-0.039,0.042,-0.003,0.123,0.058,0.102,0.135,0.186,0.052,0.01,-0.021,0.125
1.181,0.057,0.03,-0.026,-0.043,0.041,0.002,0.124,0.06,0.104,0.141,0.191,0.058,0.009,-0.026,0.129
1.182,0.054,0.033,-0.022,-0.043,0.038,0.005,0.122,0.058,0.103,0.141,0.193,0.059,0.008,-0.029,0.132
1.183,0.049,0.029,-0.021,-0.039,0.035,0.004,0.119,0.05,0.098,0.139,0.189,0.057,0.006,-0.031,0.135
1.184,0.049,0.026,-0.022,-0.038,0.036,0.002,0.115,0.043,0.09,0.132,0.185,0.055,0.005,-0.035,0.138
1.185,0.052,0.025,-0.026,-0.038,0.039,-0.001,0.112,0.036,0.086,0.129,0.181,0.054,0.006,-0.037,0.141
1.186,0.052,0.022,-0.03,-0.037,0.041,-0.004,0.112,0.036,0.084,0.13,0.182,0.055,0.009,-0.04,0.142
1.187,0.056,0.024,-0.032,-0.04,0.043,-0.004,0.112,0.037,0.084,0.13,0.184,0.057,0.01,-0.039,0.145
1.188,0.061,0.028,-0.034,-0.044,0.047,-0.003,0.109,0.035,0.082,0.13,0.183,0.056,0.009,-0.042,0.148
1.189,0.058,0.024,-0.034,-0.041,0.045,-0.005,0.111,0.035,0.082,0.129,0.183,0.056,0.009,-0.046,0.147
1.19,0.052,0.02,-0.033,-0.036,0.043,-0.006,0.111,0.035,0.079,0.127,0.181,0.054,0.007,-0.047,0.147
1.191,0.051,0.017,-0.035,-0.034,0.043,-0.009,0.106,0.029,0.075,0.121,0.178,0.053,0.01,-0.042,0.148
1.192,0.06,0.015,-0.046,-0.037,0.053,-0.015,0.1,0.025,0.069,0.116,0.174,0.05,0.015,-0.043,0.15
1.193,0.067,0.016,-0.051,-0.041,0.059,-0.018,0.098,0.024,0.068,0.116,0.175,0.048,0.013,-0.043,0.15
1.194,0.067,0.017,-0.05,-0.042,0.058,-0.016,0.103,0.027,0.071,0.119,0.178,0.05,0.013,-0.038,0.148
1.195,0.066,0.016,-0.049,-0.041,0.057,-0.017,0.106,0.028,0.07,0.118,0.178,0.051,0.012,-0.036,0.146
1.196,0.066,0.015,-0.051,-0.041,0.058,-0.018,0.105,0.026,0.07,0.118,0.176,0.051,0.011,-0.035,0.145
1.197,0.067,0.011,-0.055,-0.04,0.061,-0.021,0.1,0.025,0.068,0.117,0.172,0.046,0.01,-0.041,0.146
1.198,0.065,0.004,-0.059,-0.035,0.062,-0.028,0.097,0.021,0.063,0.111,0.168,0.042,0.008,-0.042,0.147
1.199,0.071,0.002,-0.07,-0.036,0.07,-0.034,0.092,0.018,0.059,0.109,0.168,0.042,0.013,-0.043,0.149
1.2,0.065,-0.007,-0.072,-0.029,0.069,-0.04,0.09,0.017,0.057,0.106,0.165,0.04,0.01,-0.054,0.15
1.201,0.06,-0.016,-0.076,-0.022,0.069,-0.046,0.092,0.018,0.059,0.109,0.166,0.042,0.009,-0.062,0.153
1.202,0.061,-0.016,-0.077,-0.022,0.07,-0.046,0.096,0.023,0.061,0.114,0.17,0.045,0.009,-0.069,0.154
1.203,0.057,-0.015,-0.071,-0.021,0.065,-0.043,0.1,0.028,0.065,0.117,0.171,0.049,0.011,-0.07,0.151
1.204,0.064,-0.009,-0.073,-0.027,0.069,-0.042,0.1,0.027,0.067,0.119,0.175,0.051,0.015,-0.065,0.15
1.205,0.059,-0.015,-0.074,-0.022,0.067,-0.045,0.099,0.025,0.066,0.116,0.172,0.047,0.013,-0.066,0.152
1.206,0.05,-0.024,-0.073,-0.013,0.061,-0.049,0.1,0.024,0.064,0.113,0.171,0.045,0.011,-0.068,0.152
1.207,0.05,-0.023,-0.072,-0.014,0.061,-0.048,0.103,0.026,0.066,0.117,0.175,0.049,0.011,-0.068,0.152
1.208,0.05,-0.024,-0.073,-0.013,0.061,-0.049,0.106,0.029,0.068,0.12,0.176,0.051,0.013,-0.072,0.154
1.209,0.046,-0.025,-0.071,-0.011,0.059,-0.048,0.107,0.029,0.067,0.12,0.177,0.051,0.013,-0.075,0.153
1.21,0.051,-0.022,-0.072,-0.014,0.061,-0.048,0.104,0.029,0.065,0.12,0.177,0.051,0.013,-0.076,0.152
1.211,0.052,-0.026,-0.079,-0.013,0.066,-0.052,0.097,0.021,0.06,0.112,0.172,0.044,0.014,-0.075,0.153
1.212,0.052,-0.034,-0.086,-0.009,0.069,-0.059,0.094,0.015,0.053,0.103,0.165,0.037,0.015,-0.077,0.154
1.213,0.056,-0.039,-0.095,-0.009,0.075,-0.068,0.093,0.015,0.05,0.102,0.162,0.035,0.014,-0.082,0.155
