'Elapsed time','i','ii','iii','avr','avl','avf','v1','v2','v3','v4','v5','v6','vx','vy','vz'
'hh:mm:ss.mmm','mV','mV','mV','mV','mV','mV','mV','mV','mV','mV','mV','mV','mV','mV','mV'
'0:00.000',-5.388,-5.283,0.104,5.335,-2.746,-2.589,-0.764,-1.454,-1.043,-0.515,-0.453,-1.718,-0.503,-0.287,-0.509
'0:00.001',-5.389,-5.284,0.104,5.337,-2.747,-2.589,-0.764,-1.454,-1.044,-0.516,-0.452,-1.718,-0.503,-0.286,-0.508
'0:00.002',-5.391,-5.284,0.106,5.337,-2.748,-2.588,-0.765,-1.454,-1.044,-0.515,-0.452,-1.718,-0.503,-0.287,-0.508
'0:00.003',-5.39,-5.284,0.105,5.337,-2.748,-2.589,-0.764,-1.456,-1.044,-0.515,-0.452,-1.718,-0.502,-0.291,-0.507
'0:00.004',-5.391,-5.285,0.104,5.338,-2.748,-2.59,-0.765,-1.456,-1.045,-0.517,-0.452,-1.719,-0.502,-0.291,-0.508
'0:00.005',-5.393,-5.287,0.105,5.34,-2.748,-2.591,-0.766,-1.457,-1.044,-0.516,-0.453,-1.719,-0.502,-0.288,-0.508
'0:00.006',-5.392,-5.285,0.106,5.338,-2.749,-2.59,-0.767,-1.456,-1.044,-0.515,-0.452,-1.718,-0.502,-0.29,-0.508
'0:00.007',-5.391,-5.286,0.104,5.338,-2.748,-2.59,-0.767,-1.456,-1.042,-0.515,-0.451,-1.717,-0.502,-0.29,-0.508
'0:00.008',-5.393,-5.287,0.105,5.34,-2.749,-2.591,-0.766,-1.456,-1.042,-0.515,-0.45,-1.716,-0.502,-0.291,-0.509
'0:00.009',-5.394,-5.287,0.107,5.34,-2.751,-2.59,-0.765,-1.456,-1.044,-0.516,-0.45,-1.718,-0.503,-0.291,-0.509
'0:00.010',-5.392,-5.287,0.105,5.339,-2.748,-2.591,-0.766,-1.458,-1.044,-0.516,-0.45,-1.718,-0.502,-0.291,-0.509
'0:00.011',-5.391,-5.285,0.106,5.338,-2.748,-2.59,-0.765,-1.456,-1.043,-0.515,-0.45,-1.718,-0.502,-0.29,-0.51
'0:00.012',-5.396,-5.29,0.105,5.343,-2.751,-2.592,-0.764,-1.456,-1.044,-0.516,-0.451,-1.72,-0.503,-0.288,-0.51
'0:00.013',-5.396,-5.292,0.103,5.343,-2.749,-2.594,-0.766,-1.458,-1.046,-0.518,-0.452,-1.722,-0.504,-0.29,-0.51
'0:00.014',-5.394,-5.288,0.104,5.341,-2.749,-2.592,-0.765,-1.458,-1.047,-0.519,-0.452,-1.722,-0.505,-0.292,-0.51
'0:00.015',-5.395,-5.29,0.105,5.342,-2.751,-2.591,-0.765,-1.458,-1.048,-0.519,-0.451,-1.722,-0.504,-0.294,-0.509
'0:00.016',-5.395,-5.29,0.104,5.343,-2.749,-2.593,-0.768,-1.46,-1.048,-0.519,-0.451,-1.722,-0.504,-0.295,-0.51
'0:00.017',-5.394,-5.29,0.104,5.341,-2.749,-2.592,-0.768,-1.459,-1.046,-0.519,-0.451,-1.721,-0.503,-0.294,-0.509
'0:00.018',-5.393,-5.287,0.105,5.34,-2.748,-2.591,-0.766,-1.458,-1.044,-0.517,-0.448,-1.72,-0.502,-0.291,-0.509
'0:00.019',-5.392,-5.285,0.106,5.338,-2.749,-2.59,-0.765,-1.456,-1.044,-0.516,-0.448,-1.72,-0.504,-0.29,-0.509
'0:00.020',-5.394,-5.288,0.106,5.341,-2.75,-2.591,-0.766,-1.457,-1.044,-0.517,-0.448,-1.72,-0.503,-0.293,-0.509
'0:00.021',-5.393,-5.29,0.102,5.341,-2.748,-2.594,-0.767,-1.459,-1.045,-0.518,-0.447,-1.72,-0.502,-0.299,-0.508
'0:00.022',-5.391,-5.29,0.101,5.34,-2.747,-2.594,-0.768,-1.458,-1.044,-0.518,-0.447,-1.719,-0.503,-0.298,-0.508
'0:00.023',-5.394,-5.29,0.102,5.341,-2.748,-2.594,-0.765,-1.458,-1.043,-0.519,-0.448,-1.718,-0.503,-0.295,-0.509
'0:00.024',-5.396,-5.292,0.103,5.343,-2.749,-2.594,-0.765,-1.458,-1.044,-0.519,-0.447,-1.718,-0.503,-0.293,-0.509
'0:00.025',-5.396,-5.291,0.104,5.343,-2.751,-2.593,-0.767,-1.46,-1.043,-0.518,-0.447,-1.718,-0.502,-0.289,-0.508
'0:00.026',-5.394,-5.292,0.102,5.343,-2.748,-2.595,-0.767,-1.46,-1.044,-0.52,-0.448,-1.72,-0.502,-0.292,-0.507
'0:00.027',-5.393,-5.293,0.1,5.343,-2.746,-2.596,-0.767,-1.461,-1.044,-0.521,-0.449,-1.72,-0.503,-0.296,-0.507
'0:00.028',-5.391,-5.292,0.099,5.341,-2.745,-2.596,-0.769,-1.462,-1.046,-0.519,-0.448,-1.719,-0.502,-0.298,-0.507
'0:00.029',-5.39,-5.292,0.098,5.341,-2.744,-2.596,-0.768,-1.461,-1.045,-0.52,-0.448,-1.718,-0.501,-0.3,-0.507
'0:00.030',-5.393,-5.294,0.098,5.343,-2.745,-2.598,-0.77,-1.46,-1.045,-0.519,-0.448,-1.718,-0.501,-0.298,-0.507
'0:00.031',-5.394,-5.293,0.101,5.343,-2.748,-2.596,-0.769,-1.46,-1.046,-0.52,-0.448,-1.719,-0.503,-0.293,-0.508
'0:00.032',-5.395,-5.294,0.101,5.344,-2.748,-2.596,-0.767,-1.46,-1.045,-0.522,-0.449,-1.72,-0.504,-0.29,-0.509
'0:00.033',-5.394,-5.294,0.1,5.344,-2.748,-2.596,-0.767,-1.46,-1.045,-0.522,-0.448,-1.721,-0.505,-0.292,-0.509
'0:00.034',-5.391,-5.293,0.098,5.343,-2.745,-2.598,-0.768,-1.46,-1.044,-0.522,-0.449,-1.72,-0.504,-0.294,-0.508
'0:00.035',-5.392,-5.295,0.096,5.343,-2.744,-2.599,-0.768,-1.462,-1.046,-0.522,-0.451,-1.722,-0.504,-0.296,-0.508
'0:00.036',-5.391,-5.295,0.095,5.343,-2.743,-2.6,-0.768,-1.462,-1.046,-0.523,-0.451,-1.72,-0.503,-0.299,-0.507
'0:00.037',-5.389,-5.293,0.096,5.341,-2.742,-2.599,-0.769,-1.462,-1.046,-0.524,-0.45,-1.721,-0.502,-0.297,-0.507
'0:00.038',-5.389,-5.292,0.097,5.34,-2.743,-2.598,-0.768,-1.462,-1.046,-0.522,-0.448,-1.72,-0.501,-0.296,-0.507
'0:00.039',-5.393,-5.293,0.099,5.343,-2.746,-2.596,-0.767,-1.462,-1.045,-0.522,-0.449,-1.719,-0.5,-0.297,-0.507
'0:00.040',-5.398,-5.296,0.102,5.347,-2.75,-2.597,-0.766,-1.462,-1.046,-0.523,-0.45,-1.72,-0.503,-0.296,-0.506
'0:00.041',-5.396,-5.295,0.1,5.345,-2.748,-2.598,-0.765,-1.462,-1.044,-0.522,-0.448,-1.72,-0.502,-0.296,-0.507
'0:00.042',-5.391,-5.293,0.099,5.341,-2.745,-2.597,-0.765,-1.462,-1.044,-0.521,-0.449,-1.72,-0.501,-0.297,-0.507
'0:00.043',-5.393,-5.292,0.1,5.342,-2.746,-2.595,-0.766,-1.462,-1.044,-0.521,-0.449,-1.72,-0.503,-0.298,-0.507
'0:00.044',-5.392,-5.292,0.1,5.341,-2.746,-2.595,-0.766,-1.462,-1.044,-0.52,-0.449,-1.72,-0.503,-0.298,-0.507
'0:00.045',-5.394,-5.294,0.1,5.343,-2.747,-2.597,-0.767,-1.462,-1.044,-0.52,-0.45,-1.719,-0.502,-0.298,-0.506
'0:00.046',-5.396,-5.298,0.098,5.346,-2.747,-2.599,-0.768,-1.462,-1.045,-0.52,-0.45,-1.719,-0.502,-0.297,-0.506
'0:00.047',-5.396,-5.298,0.097,5.346,-2.746,-2.6,-0.769,-1.462,-1.046,-0.521,-0.452,-1.72,-0.502,-0.298,-0.506
'0:00.048',-5.397,-5.298,0.098,5.348,-2.748,-2.6,-0.77,-1.463,-1.048,-0.522,-0.451,-1.72,-0.502,-0.299,-0.506
'0:00.049',-5.396,-5.298,0.099,5.347,-2.748,-2.599,-0.769,-1.463,-1.046,-0.521,-0.45,-1.718,-0.501,-0.299,-0.506
'0:00.050',-5.397,-5.298,0.099,5.347,-2.748,-2.599,-0.769,-1.464,-1.046,-0.521,-0.451,-1.72,-0.501,-0.297,-0.505
'0:00.051',-5.399,-5.3,0.099,5.348,-2.748,-2.6,-0.768,-1.464,-1.048,-0.522,-0.452,-1.719,-0.502,-0.296,-0.505
'0:00.052',-5.399,-5.3,0.099,5.349,-2.749,-2.6,-0.768,-1.464,-1.046,-0.522,-0.452,-1.718,-0.502,-0.294,-0.506
'0:00.053',-5.399,-5.298,0.101,5.348,-2.75,-2.599,-0.768,-1.463,-1.045,-0.521,-0.451,-1.718,-0.502,-0.295,-0.505
'0:00.054',-5.399,-5.295,0.103,5.346,-2.751,-2.596,-0.768,-1.462,-1.046,-0.52,-0.451,-1.719,-0.502,-0.293,-0.505
'0:00.055',-5.397,-5.293,0.103,5.345,-2.75,-2.595,-0.767,-1.462,-1.046,-0.522,-0.451,-1.718,-0.502,-0.293,-0.505
'0:00.056',-5.391,-5.292,0.1,5.341,-2.745,-2.595,-0.765,-1.46,-1.045,-0.521,-0.451,-1.717,-0.501,-0.295,-0.505
'0:00.057',-5.391,-5.29,0.1,5.34,-2.745,-2.595,-0.765,-1.46,-1.045,-0.521,-0.451,-1.717,-0.501,-0.295,-0.506
'0:00.058',-5.394,-5.293,0.101,5.343,-2.747,-2.595,-0.767,-1.462,-1.045,-0.521,-0.452,-1.717,-0.501,-0.295,-0.505
'0:00.059',-5.393,-5.293,0.099,5.343,-2.745,-2.596,-0.767,-1.46,-1.045,-0.52,-0.451,-1.718,-0.502,-0.296,-0.506
'0:00.060',-5.389,-5.29,0.099,5.339,-2.744,-2.595,-0.766,-1.46,-1.045,-0.519,-0.449,-1.718,-0.502,-0.296,-0.506
'0:00.061',-5.389,-5.29,0.098,5.34,-2.744,-2.596,-0.766,-1.46,-1.044,-0.518,-0.449,-1.716,-0.501,-0.296,-0.506
'0:00.062',-5.391,-5.294,0.096,5.342,-2.744,-2.599,-0.766,-1.46,-1.044,-0.52,-0.451,-1.716,-0.502,-0.297,-0.507
'0:00.063',-5.391,-5.295,0.095,5.343,-2.743,-2.6,-0.767,-1.461,-1.045,-0.521,-0.45,-1.716,-0.502,-0.301,-0.506
'0:00.064',-5.39,-5.295,0.095,5.343,-2.742,-2.6,-0.767,-1.462,-1.046,-0.521,-0.45,-1.716,-0.502,-0.301,-0.505
'0:00.065',-5.391,-5.293,0.097,5.341,-2.744,-2.598,-0.765,-1.461,-1.046,-0.52,-0.452,-1.715,-0.501,-0.298,-0.505
'0:00.066',-5.393,-5.293,0.099,5.343,-2.745,-2.597,-0.764,-1.46,-1.045,-0.52,-0.451,-1.715,-0.502,-0.3,-0.506
'0:00.067',-5.394,-5.295,0.1,5.344,-2.747,-2.598,-0.763,-1.462,-1.046,-0.52,-0.451,-1.717,-0.504,-0.299,-0.506
'0:00.068',-5.394,-5.293,0.101,5.343,-2.748,-2.596,-0.763,-1.462,-1.046,-0.52,-0.452,-1.716,-0.504,-0.299,-0.506
'0:00.069',-5.394,-5.29,0.102,5.342,-2.748,-2.594,-0.763,-1.462,-1.046,-0.521,-0.451,-1.717,-0.503,-0.297,-0.505
'0:00.070',-5.391,-5.287,0.103,5.339,-2.748,-2.591,-0.763,-1.46,-1.046,-0.519,-0.45,-1.716,-0.503,-0.296,-0.505
'0:00.071',-5.388,-5.286,0.102,5.337,-2.745,-2.591,-0.763,-1.46,-1.045,-0.518,-0.449,-1.716,-0.504,-0.298,-0.506
'0:00.072',-5.385,-5.283,0.102,5.333,-2.744,-2.591,-0.762,-1.46,-1.044,-0.517,-0.448,-1.716,-0.504,-0.297,-0.505
'0:00.073',-5.385,-5.284,0.101,5.333,-2.743,-2.591,-0.763,-1.46,-1.044,-0.518,-0.449,-1.717,-0.505,-0.297,-0.505
'0:00.074',-5.386,-5.286,0.1,5.336,-2.743,-2.593,-0.763,-1.462,-1.044,-0.519,-0.449,-1.718,-0.505,-0.298,-0.505
'0:00.075',-5.388,-5.286,0.101,5.337,-2.744,-2.592,-0.762,-1.462,-1.044,-0.518,-0.449,-1.717,-0.505,-0.298,-0.506
'0:00.076',-5.389,-5.285,0.103,5.338,-2.747,-2.591,-0.761,-1.462,-1.044,-0.518,-0.449,-1.718,-0.505,-0.296,-0.506
'0:00.077',-5.389,-5.286,0.103,5.337,-2.746,-2.591,-0.76,-1.462,-1.044,-0.518,-0.449,-1.719,-0.506,-0.297,-0.507
'0:00.078',-5.389,-5.285,0.105,5.337,-2.748,-2.59,-0.761,-1.462,-1.044,-0.518,-0.45,-1.72,-0.507,-0.295,-0.508
'0:00.079',-5.391,-5.287,0.104,5.339,-2.748,-2.591,-0.763,-1.462,-1.044,-0.519,-0.453,-1.72,-0.505,-0.294,-0.507
'0:00.080',-5.391,-5.288,0.102,5.34,-2.747,-2.593,-0.764,-1.462,-1.046,-0.518,-0.453,-1.719,-0.503,-0.297,-0.506
'0:00.081',-5.391,-5.287,0.103,5.339,-2.748,-2.591,-0.764,-1.462,-1.046,-0.517,-0.452,-1.719,-0.504,-0.298,-0.507
'0:00.082',-5.391,-5.287,0.103,5.339,-2.748,-2.591,-0.765,-1.462,-1.045,-0.517,-0.452,-1.718,-0.504,-0.297,-0.506
'0:00.083',-5.389,-5.287,0.102,5.338,-2.745,-2.592,-0.768,-1.465,-1.047,-0.52,-0.454,-1.72,-0.504,-0.297,-0.505
'0:00.084',-5.388,-5.286,0.102,5.337,-2.745,-2.592,-0.769,-1.466,-1.048,-0.521,-0.454,-1.722,-0.505,-0.297,-0.506
'0:00.085',-5.392,-5.289,0.102,5.34,-2.748,-2.593,-0.77,-1.466,-1.048,-0.522,-0.454,-1.722,-0.505,-0.298,-0.506
'0:00.086',-5.395,-5.293,0.102,5.343,-2.748,-2.595,-0.772,-1.467,-1.048,-0.522,-0.455,-1.722,-0.504,-0.296,-0.505
'0:00.087',-5.398,-5.294,0.103,5.346,-2.751,-2.595,-0.775,-1.468,-1.048,-0.523,-0.456,-1.724,-0.505,-0.293,-0.505
'0:00.088',-5.402,-5.295,0.105,5.348,-2.753,-2.595,-0.775,-1.468,-1.048,-0.525,-0.457,-1.723,-0.505,-0.297,-0.506
'0:00.089',-5.399,-5.293,0.104,5.346,-2.752,-2.595,-0.773,-1.467,-1.048,-0.523,-0.455,-1.722,-0.504,-0.298,-0.506
'0:00.090',-5.396,-5.292,0.104,5.343,-2.751,-2.594,-0.774,-1.468,-1.047,-0.524,-0.455,-1.722,-0.504,-0.295,-0.505
'0:00.091',-5.397,-5.292,0.105,5.345,-2.751,-2.594,-0.772,-1.469,-1.048,-0.523,-0.456,-1.72,-0.505,-0.298,-0.506
'0:00.092',-5.397,-5.292,0.105,5.344,-2.751,-2.593,-0.772,-1.468,-1.049,-0.522,-0.455,-1.722,-0.504,-0.299,-0.506
'0:00.093',-5.399,-5.291,0.107,5.345,-2.753,-2.592,-0.771,-1.466,-1.048,-0.523,-0.455,-1.72,-0.503,-0.297,-0.505
'0:00.094',-5.399,-5.293,0.105,5.346,-2.752,-2.594,-0.77,-1.467,-1.049,-0.522,-0.455,-1.72,-0.503,-0.297,-0.506
'0:00.095',-5.403,-5.296,0.106,5.349,-2.755,-2.595,-0.772,-1.469,-1.05,-0.523,-0.457,-1.722,-0.503,-0.297,-0.506
'0:00.096',-5.407,-5.298,0.108,5.353,-2.757,-2.595,-0.771,-1.468,-1.051,-0.524,-0.457,-1.722,-0.503,-0.296,-0.505
'0:00.097',-5.41,-5.301,0.108,5.355,-2.759,-2.596,-0.77,-1.468,-1.052,-0.524,-0.458,-1.723,-0.504,-0.295,-0.506
'0:00.098',-5.412,-5.301,0.11,5.356,-2.761,-2.595,-0.771,-1.47,-1.052,-0.525,-0.459,-1.724,-0.504,-0.293,-0.506
'0:00.099',-5.413,-5.304,0.109,5.359,-2.761,-2.598,-0.773,-1.472,-1.054,-0.526,-0.46,-1.722,-0.503,-0.295,-0.505
'0:00.100',-5.413,-5.306,0.107,5.359,-2.76,-2.599,-0.774,-1.472,-1.054,-0.527,-0.46,-1.724,-0.504,-0.297,-0.506
'0:00.101',-5.412,-5.305,0.107,5.359,-2.76,-2.599,-0.775,-1.473,-1.054,-0.527,-0.46,-1.723,-0.503,-0.299,-0.505
'0:00.102',-5.411,-5.305,0.105,5.357,-2.759,-2.599,-0.776,-1.474,-1.055,-0.528,-0.459,-1.722,-0.502,-0.301,-0.505
'0:00.103',-5.412,-5.306,0.105,5.359,-2.759,-2.6,-0.777,-1.474,-1.054,-0.528,-0.46,-1.724,-0.503,-0.3,-0.504
'0:00.104',-5.41,-5.304,0.105,5.357,-2.758,-2.599,-0.776,-1.474,-1.053,-0.527,-0.46,-1.724,-0.505,-0.299,-0.504
'0:00.105',-5.41,-5.303,0.107,5.356,-2.759,-2.598,-0.774,-1.472,-1.052,-0.527,-0.459,-1.724,-0.505,-0.298,-0.505
'0:00.106',-5.411,-5.303,0.106,5.357,-2.759,-2.598,-0.775,-1.473,-1.054,-0.528,-0.459,-1.726,-0.504,-0.298,-0.505
'0:00.107',-5.41,-5.305,0.105,5.357,-2.758,-2.6,-0.773,-1.473,-1.054,-0.529,-0.461,-1.726,-0.505,-0.298,-0.505
'0:00.108',-5.413,-5.307,0.105,5.36,-2.76,-2.6,-0.773,-1.474,-1.054,-0.528,-0.461,-1.725,-0.504,-0.297,-0.504
'0:00.109',-5.415,-5.306,0.107,5.361,-2.761,-2.599,-0.773,-1.474,-1.056,-0.53,-0.463,-1.726,-0.504,-0.297,-0.503
'0:00.110',-5.417,-5.309,0.107,5.363,-2.762,-2.601,-0.775,-1.475,-1.058,-0.531,-0.464,-1.728,-0.505,-0.297,-0.503
'0:00.111',-5.418,-5.312,0.104,5.364,-2.761,-2.604,-0.777,-1.476,-1.058,-0.531,-0.464,-1.728,-0.505,-0.299,-0.503
'0:00.112',-5.418,-5.314,0.104,5.366,-2.761,-2.605,-0.777,-1.476,-1.059,-0.532,-0.465,-1.73,-0.506,-0.296,-0.504
'0:00.113',-5.418,-5.314,0.104,5.366,-2.761,-2.604,-0.776,-1.474,-1.058,-0.53,-0.465,-1.728,-0.504,-0.295,-0.503
'0:00.114',-5.416,-5.312,0.103,5.364,-2.76,-2.604,-0.776,-1.472,-1.058,-0.53,-0.464,-1.726,-0.503,-0.299,-0.503
'0:00.115',-5.42,-5.316,0.104,5.368,-2.763,-2.606,-0.778,-1.476,-1.058,-0.533,-0.466,-1.729,-0.504,-0.296,-0.502
'0:00.116',-5.423,-5.316,0.106,5.369,-2.764,-2.604,-0.779,-1.477,-1.06,-0.535,-0.467,-1.731,-0.505,-0.295,-0.502
'0:00.117',-5.419,-5.312,0.106,5.365,-2.763,-2.603,-0.779,-1.476,-1.059,-0.533,-0.465,-1.73,-0.504,-0.296,-0.502
'0:00.118',-5.417,-5.313,0.103,5.364,-2.76,-2.604,-0.78,-1.476,-1.06,-0.533,-0.467,-1.73,-0.503,-0.299,-0.502
'0:00.119',-5.421,-5.316,0.105,5.369,-2.763,-2.606,-0.78,-1.476,-1.061,-0.536,-0.47,-1.73,-0.504,-0.301,-0.501
'0:00.120',-5.425,-5.32,0.104,5.372,-2.765,-2.607,-0.783,-1.479,-1.062,-0.536,-0.469,-1.73,-0.504,-0.3,-0.501
'0:00.121',-5.426,-5.324,0.102,5.375,-2.764,-2.61,-0.782,-1.48,-1.063,-0.539,-0.47,-1.732,-0.504,-0.3,-0.501
'0:00.122',-5.426,-5.324,0.102,5.375,-2.764,-2.611,-0.782,-1.479,-1.063,-0.539,-0.47,-1.733,-0.504,-0.3,-0.503
'0:00.123',-5.43,-5.325,0.103,5.378,-2.767,-2.611,-0.783,-1.482,-1.064,-0.537,-0.472,-1.734,-0.504,-0.3,-0.502
'0:00.124',-5.435,-5.327,0.106,5.381,-2.771,-2.611,-0.783,-1.48,-1.063,-0.538,-0.473,-1.735,-0.505,-0.295,-0.501
'0:00.125',-5.438,-5.328,0.108,5.383,-2.773,-2.61,-0.782,-1.48,-1.062,-0.537,-0.472,-1.735,-0.506,-0.292,-0.502
'0:00.126',-5.439,-5.33,0.108,5.385,-2.773,-2.611,-0.782,-1.48,-1.063,-0.537,-0.472,-1.734,-0.506,-0.29,-0.503
'0:00.127',-5.436,-5.329,0.106,5.382,-2.771,-2.611,-0.783,-1.48,-1.063,-0.537,-0.471,-1.733,-0.504,-0.291,-0.502
'0:00.128',-5.433,-5.329,0.102,5.38,-2.768,-2.613,-0.785,-1.481,-1.065,-0.538,-0.472,-1.733,-0.503,-0.298,-0.501
'0:00.129',-5.431,-5.327,0.102,5.378,-2.767,-2.612,-0.785,-1.48,-1.065,-0.538,-0.47,-1.732,-0.503,-0.301,-0.501
'0:00.130',-5.428,-5.326,0.102,5.377,-2.764,-2.612,-0.781,-1.48,-1.064,-0.538,-0.47,-1.731,-0.503,-0.302,-0.5
'0:00.131',-5.429,-5.327,0.102,5.378,-2.765,-2.612,-0.78,-1.48,-1.063,-0.537,-0.472,-1.73,-0.504,-0.298,-0.499
'0:00.132',-5.431,-5.327,0.103,5.379,-2.768,-2.611,-0.779,-1.478,-1.062,-0.536,-0.471,-1.731,-0.504,-0.295,-0.499
'0:00.133',-5.43,-5.327,0.102,5.378,-2.766,-2.612,-0.779,-1.478,-1.063,-0.537,-0.47,-1.731,-0.504,-0.297,-0.499
'0:00.134',-5.431,-5.327,0.103,5.378,-2.767,-2.611,-0.779,-1.478,-1.062,-0.538,-0.472,-1.732,-0.504,-0.296,-0.499
'0:00.135',-5.431,-5.328,0.103,5.38,-2.768,-2.612,-0.778,-1.48,-1.062,-0.538,-0.472,-1.732,-0.505,-0.296,-0.501
'0:00.136',-5.431,-5.329,0.102,5.38,-2.767,-2.612,-0.778,-1.478,-1.062,-0.537,-0.47,-1.732,-0.505,-0.299,-0.5
'0:00.137',-5.43,-5.327,0.102,5.378,-2.766,-2.612,-0.779,-1.478,-1.065,-0.538,-0.47,-1.732,-0.505,-0.301,-0.5
'0:00.138',-5.431,-5.327,0.104,5.378,-2.768,-2.611,-0.777,-1.478,-1.064,-0.538,-0.471,-1.733,-0.506,-0.299,-0.5
'0:00.139',-5.434,-5.326,0.107,5.38,-2.771,-2.609,-0.776,-1.478,-1.062,-0.538,-0.47,-1.732,-0.505,-0.298,-0.5
'0:00.140',-5.436,-5.329,0.107,5.382,-2.771,-2.611,-0.778,-1.479,-1.063,-0.539,-0.471,-1.734,-0.506,-0.3,-0.5
'0:00.141',-5.436,-5.33,0.106,5.383,-2.771,-2.612,-0.778,-1.48,-1.065,-0.539,-0.472,-1.734,-0.505,-0.3,-0.499
'0:00.142',-5.438,-5.332,0.105,5.385,-2.772,-2.613,-0.777,-1.48,-1.065,-0.54,-0.472,-1.734,-0.505,-0.301,-0.499
'0:00.143',-5.441,-5.332,0.108,5.386,-2.775,-2.611,-0.777,-1.48,-1.065,-0.54,-0.473,-1.734,-0.506,-0.299,-0.499
'0:00.144',-5.438,-5.331,0.107,5.385,-2.772,-2.612,-0.778,-1.48,-1.065,-0.54,-0.473,-1.735,-0.505,-0.297,-0.499
'0:00.145',-5.435,-5.33,0.105,5.382,-2.77,-2.612,-0.779,-1.48,-1.065,-0.541,-0.473,-1.734,-0.505,-0.3,-0.499
'0:00.146',-5.431,-5.327,0.104,5.379,-2.768,-2.611,-0.778,-1.479,-1.064,-0.54,-0.473,-1.732,-0.504,-0.302,-0.499
'0:00.147',-5.431,-5.327,0.103,5.378,-2.767,-2.611,-0.777,-1.478,-1.065,-0.541,-0.474,-1.732,-0.504,-0.299,-0.498
'0:00.148',-5.431,-5.326,0.104,5.378,-2.767,-2.611,-0.777,-1.477,-1.066,-0.54,-0.473,-1.732,-0.504,-0.298,-0.497
'0:00.149',-5.427,-5.325,0.102,5.376,-2.764,-2.611,-0.778,-1.478,-1.066,-0.54,-0.472,-1.732,-0.503,-0.301,-0.497
'0:00.150',-5.425,-5.324,0.099,5.375,-2.762,-2.612,-0.778,-1.478,-1.065,-0.542,-0.472,-1.734,-0.504,-0.304,-0.498
'0:00.151',-5.426,-5.325,0.1,5.375,-2.763,-2.612,-0.776,-1.478,-1.065,-0.541,-0.472,-1.734,-0.506,-0.302,-0.498
'0:00.152',-5.428,-5.327,0.101,5.377,-2.764,-2.612,-0.775,-1.479,-1.064,-0.54,-0.471,-1.734,-0.505,-0.301,-0.498
'0:00.153',-5.428,-5.327,0.101,5.378,-2.764,-2.613,-0.777,-1.478,-1.064,-0.541,-0.472,-1.733,-0.505,-0.3,-0.498
'0:00.154',-5.426,-5.325,0.101,5.375,-2.764,-2.612,-0.775,-1.478,-1.065,-0.54,-0.471,-1.732,-0.504,-0.301,-0.498
'0:00.155',-5.423,-5.321,0.102,5.371,-2.762,-2.61,-0.776,-1.478,-1.064,-0.538,-0.469,-1.732,-0.505,-0.301,-0.5
'0:00.156',-5.418,-5.317,0.102,5.368,-2.76,-2.607,-0.775,-1.477,-1.063,-0.538,-0.468,-1.731,-0.505,-0.299,-0.499
'0:00.157',-5.419,-5.317,0.101,5.368,-2.76,-2.608,-0.773,-1.477,-1.062,-0.538,-0.467,-1.73,-0.504,-0.298,-0.5
'0:00.158',-5.418,-5.319,0.1,5.368,-2.76,-2.609,-0.775,-1.478,-1.063,-0.539,-0.468,-1.732,-0.505,-0.298,-0.499
'0:00.159',-5.418,-5.316,0.102,5.367,-2.76,-2.607,-0.775,-1.478,-1.063,-0.539,-0.469,-1.732,-0.505,-0.299,-0.498
'0:00.160',-5.418,-5.314,0.102,5.365,-2.76,-2.606,-0.776,-1.478,-1.063,-0.539,-0.468,-1.73,-0.505,-0.298,-0.498
'0:00.161',-5.416,-5.314,0.102,5.364,-2.759,-2.606,-0.777,-1.478,-1.064,-0.539,-0.467,-1.73,-0.505,-0.297,-0.498
'0:00.162',-5.42,-5.317,0.102,5.369,-2.76,-2.608,-0.778,-1.479,-1.063,-0.539,-0.468,-1.731,-0.505,-0.299,-0.498
'0:00.163',-5.426,-5.322,0.103,5.374,-2.765,-2.61,-0.778,-1.48,-1.065,-0.54,-0.47,-1.732,-0.504,-0.3,-0.498
'0:00.164',-5.428,-5.323,0.104,5.375,-2.765,-2.609,-0.778,-1.48,-1.064,-0.539,-0.469,-1.73,-0.504,-0.296,-0.498
'0:00.165',-5.428,-5.324,0.103,5.375,-2.765,-2.611,-0.779,-1.48,-1.065,-0.539,-0.47,-1.732,-0.505,-0.296,-0.498
'0:00.166',-5.429,-5.325,0.104,5.377,-2.767,-2.611,-0.779,-1.48,-1.066,-0.54,-0.471,-1.732,-0.504,-0.299,-0.498
'0:00.167',-5.428,-5.325,0.102,5.377,-2.765,-2.611,-0.78,-1.481,-1.065,-0.54,-0.471,-1.732,-0.505,-0.299,-0.499
'0:00.168',-5.428,-5.324,0.103,5.377,-2.766,-2.611,-0.777,-1.481,-1.065,-0.542,-0.471,-1.731,-0.504,-0.299,-0.499
'0:00.169',-5.428,-5.322,0.104,5.375,-2.766,-2.608,-0.776,-1.48,-1.065,-0.541,-0.47,-1.73,-0.505,-0.299,-0.5
'0:00.170',-5.426,-5.322,0.103,5.374,-2.765,-2.608,-0.777,-1.48,-1.064,-0.539,-0.469,-1.73,-0.505,-0.301,-0.5
'0:00.171',-5.425,-5.321,0.103,5.372,-2.764,-2.608,-0.778,-1.478,-1.062,-0.538,-0.469,-1.73,-0.504,-0.299,-0.5
'0:00.172',-5.423,-5.322,0.101,5.372,-2.761,-2.61,-0.778,-1.478,-1.062,-0.537,-0.469,-1.728,-0.504,-0.304,-0.5
'0:00.173',-5.426,-5.322,0.103,5.374,-2.765,-2.609,-0.777,-1.478,-1.062,-0.538,-0.468,-1.728,-0.503,-0.307,-0.5
'0:00.174',-5.428,-5.323,0.104,5.375,-2.765,-2.609,-0.777,-1.478,-1.062,-0.539,-0.468,-1.729,-0.503,-0.304,-0.499
'0:00.175',-5.429,-5.325,0.104,5.377,-2.767,-2.61,-0.776,-1.48,-1.062,-0.539,-0.469,-1.729,-0.503,-0.3,-0.499
'0:00.176',-5.433,-5.326,0.106,5.379,-2.769,-2.61,-0.777,-1.48,-1.063,-0.539,-0.469,-1.728,-0.502,-0.299,-0.5
'0:00.177',-5.432,-5.326,0.105,5.379,-2.769,-2.61,-0.778,-1.48,-1.063,-0.539,-0.47,-1.73,-0.503,-0.298,-0.501
'0:00.178',-5.431,-5.324,0.105,5.377,-2.768,-2.61,-0.777,-1.482,-1.062,-0.539,-0.469,-1.73,-0.503,-0.297,-0.5
'0:00.179',-5.426,-5.322,0.104,5.374,-2.765,-2.608,-0.776,-1.48,-1.062,-0.539,-0.468,-1.728,-0.502,-0.298,-0.499
'0:00.180',-5.423,-5.318,0.104,5.37,-2.764,-2.607,-0.774,-1.476,-1.059,-0.536,-0.467,-1.726,-0.501,-0.299,-0.5
'0:00.181',-5.423,-5.317,0.105,5.37,-2.764,-2.606,-0.773,-1.475,-1.058,-0.534,-0.466,-1.726,-0.502,-0.298,-0.499
'0:00.182',-5.422,-5.317,0.104,5.37,-2.764,-2.606,-0.772,-1.476,-1.057,-0.535,-0.466,-1.726,-0.503,-0.297,-0.499
'0:00.183',-5.419,-5.314,0.105,5.366,-2.762,-2.604,-0.771,-1.474,-1.057,-0.535,-0.465,-1.726,-0.503,-0.3,-0.498
'0:00.184',-5.42,-5.311,0.109,5.365,-2.764,-2.6,-0.77,-1.475,-1.058,-0.535,-0.465,-1.728,-0.503,-0.299,-0.499
'0:00.185',-5.417,-5.309,0.107,5.363,-2.763,-2.6,-0.77,-1.474,-1.058,-0.536,-0.465,-1.728,-0.503,-0.297,-0.499
'0:00.186',-5.415,-5.309,0.106,5.362,-2.76,-2.602,-0.772,-1.474,-1.059,-0.537,-0.466,-1.728,-0.503,-0.294,-0.498
'0:00.187',-5.419,-5.31,0.108,5.364,-2.764,-2.6,-0.771,-1.474,-1.059,-0.535,-0.465,-1.728,-0.503,-0.293,-0.499
'0:00.188',-5.416,-5.309,0.107,5.362,-2.761,-2.6,-0.771,-1.475,-1.059,-0.535,-0.466,-1.728,-0.503,-0.294,-0.499
'0:00.189',-5.417,-5.309,0.107,5.362,-2.761,-2.6,-0.77,-1.476,-1.06,-0.536,-0.466,-1.73,-0.503,-0.295,-0.499
'0:00.190',-5.418,-5.311,0.107,5.364,-2.763,-2.602,-0.767,-1.474,-1.058,-0.535,-0.465,-1.728,-0.504,-0.294,-0.499
'0:00.191',-5.418,-5.309,0.108,5.364,-2.764,-2.6,-0.768,-1.474,-1.058,-0.536,-0.465,-1.73,-0.505,-0.291,-0.499
'0:00.192',-5.421,-5.309,0.111,5.365,-2.766,-2.599,-0.769,-1.474,-1.058,-0.536,-0.465,-1.728,-0.505,-0.29,-0.498
'0:00.193',-5.42,-5.311,0.109,5.365,-2.765,-2.6,-0.77,-1.476,-1.058,-0.536,-0.466,-1.728,-0.504,-0.291,-0.499
'0:00.194',-5.417,-5.309,0.106,5.363,-2.761,-2.602,-0.77,-1.476,-1.058,-0.536,-0.465,-1.728,-0.502,-0.296,-0.498
'0:00.195',-5.415,-5.309,0.105,5.362,-2.76,-2.602,-0.77,-1.474,-1.058,-0.534,-0.464,-1.727,-0.5,-0.296,-0.498
'0:00.196',-5.417,-5.309,0.106,5.362,-2.761,-2.601,-0.769,-1.475,-1.059,-0.535,-0.465,-1.727,-0.5,-0.296,-0.498
'0:00.197',-5.418,-5.312,0.106,5.365,-2.763,-2.603,-0.768,-1.474,-1.058,-0.535,-0.465,-1.726,-0.501,-0.299,-0.498
'0:00.198',-5.421,-5.314,0.106,5.368,-2.764,-2.603,-0.769,-1.476,-1.058,-0.536,-0.467,-1.728,-0.502,-0.298,-0.498
'0:00.199',-5.426,-5.319,0.106,5.372,-2.766,-2.606,-0.771,-1.476,-1.059,-0.537,-0.469,-1.73,-0.502,-0.298,-0.497
'0:00.200',-5.428,-5.322,0.106,5.375,-2.768,-2.607,-0.772,-1.478,-1.06,-0.537,-0.468,-1.73,-0.503,-0.297,-0.498
'0:00.201',-5.426,-5.319,0.107,5.372,-2.767,-2.606,-0.772,-1.478,-1.062,-0.537,-0.469,-1.728,-0.503,-0.297,-0.499
'0:00.202',-5.425,-5.319,0.105,5.372,-2.765,-2.607,-0.772,-1.477,-1.061,-0.537,-0.47,-1.73,-0.502,-0.294,-0.498
'0:00.203',-5.426,-5.321,0.105,5.373,-2.766,-2.607,-0.772,-1.476,-1.062,-0.538,-0.47,-1.731,-0.503,-0.292,-0.5
'0:00.204',-5.426,-5.321,0.104,5.373,-2.765,-2.608,-0.773,-1.476,-1.062,-0.538,-0.471,-1.731,-0.502,-0.294,-0.499
'0:00.205',-5.426,-5.322,0.103,5.373,-2.764,-2.609,-0.774,-1.478,-1.063,-0.54,-0.472,-1.731,-0.501,-0.295,-0.499
'0:00.206',-5.426,-5.322,0.103,5.373,-2.764,-2.608,-0.775,-1.477,-1.063,-0.54,-0.472,-1.731,-0.501,-0.294,-0.499
'0:00.207',-5.426,-5.322,0.104,5.373,-2.765,-2.608,-0.775,-1.476,-1.062,-0.541,-0.471,-1.731,-0.502,-0.294,-0.498
'0:00.208',-5.429,-5.324,0.105,5.376,-2.767,-2.61,-0.775,-1.476,-1.062,-0.541,-0.472,-1.73,-0.502,-0.292,-0.498
'0:00.209',-5.432,-5.327,0.104,5.38,-2.768,-2.611,-0.775,-1.476,-1.063,-0.542,-0.473,-1.732,-0.504,-0.292,-0.499
'0:00.210',-5.434,-5.327,0.106,5.38,-2.771,-2.61,-0.775,-1.478,-1.065,-0.542,-0.473,-1.734,-0.505,-0.292,-0.5
'0:00.211',-5.437,-5.329,0.108,5.383,-2.772,-2.61,-0.776,-1.478,-1.063,-0.542,-0.473,-1.733,-0.503,-0.289,-0.499
'0:00.212',-5.441,-5.335,0.105,5.388,-2.773,-2.615,-0.777,-1.48,-1.065,-0.545,-0.475,-1.735,-0.504,-0.29,-0.499
'0:00.213',-5.442,-5.337,0.105,5.389,-2.773,-2.615,-0.777,-1.479,-1.065,-0.545,-0.474,-1.736,-0.504,-0.29,-0.499
'0:00.214',-5.438,-5.333,0.104,5.386,-2.771,-2.614,-0.777,-1.48,-1.065,-0.545,-0.474,-1.736,-0.504,-0.292,-0.499
'0:00.215',-5.435,-5.332,0.103,5.383,-2.769,-2.614,-0.777,-1.479,-1.065,-0.544,-0.474,-1.736,-0.504,-0.295,-0.5
'0:00.216',-5.435,-5.33,0.104,5.383,-2.769,-2.613,-0.776,-1.476,-1.064,-0.542,-0.472,-1.736,-0.504,-0.295,-0.501
'0:00.217',-5.435,-5.329,0.105,5.382,-2.771,-2.611,-0.776,-1.478,-1.064,-0.543,-0.472,-1.736,-0.505,-0.298,-0.5
'0:00.218',-5.434,-5.33,0.104,5.382,-2.769,-2.612,-0.774,-1.478,-1.063,-0.542,-0.471,-1.735,-0.503,-0.3,-0.499
'0:00.219',-5.434,-5.329,0.104,5.381,-2.768,-2.612,-0.775,-1.478,-1.063,-0.541,-0.471,-1.734,-0.503,-0.303,-0.498
'0:00.220',-5.436,-5.33,0.104,5.383,-2.77,-2.613,-0.777,-1.48,-1.065,-0.542,-0.472,-1.736,-0.505,-0.304,-0.499
'0:00.221',-5.438,-5.332,0.104,5.385,-2.771,-2.614,-0.777,-1.478,-1.063,-0.542,-0.471,-1.736,-0.505,-0.301,-0.5
'0:00.222',-5.437,-5.331,0.105,5.383,-2.772,-2.612,-0.775,-1.478,-1.064,-0.542,-0.471,-1.736,-0.505,-0.298,-0.5
'0:00.223',-5.435,-5.329,0.105,5.381,-2.771,-2.611,-0.772,-1.478,-1.063,-0.542,-0.471,-1.735,-0.505,-0.298,-0.499
'0:00.224',-5.433,-5.326,0.106,5.38,-2.77,-2.61,-0.77,-1.476,-1.062,-0.539,-0.469,-1.732,-0.504,-0.298,-0.498
'0:00.225',-5.434,-5.327,0.107,5.38,-2.771,-2.61,-0.77,-1.476,-1.062,-0.54,-0.47,-1.733,-0.505,-0.296,-0.499
'0:00.226',-5.434,-5.324,0.11,5.378,-2.772,-2.607,-0.77,-1.474,-1.062,-0.541,-0.47,-1.733,-0.506,-0.293,-0.499
'0:00.227',-5.43,-5.321,0.108,5.375,-2.769,-2.606,-0.768,-1.473,-1.062,-0.54,-0.47,-1.732,-0.506,-0.293,-0.499
'0:00.228',-5.428,-5.321,0.107,5.375,-2.768,-2.607,-0.77,-1.474,-1.062,-0.539,-0.469,-1.731,-0.506,-0.295,-0.498
'0:00.229',-5.428,-5.319,0.108,5.373,-2.768,-2.605,-0.773,-1.474,-1.062,-0.539,-0.47,-1.732,-0.506,-0.299,-0.497
'0:00.230',-5.427,-5.318,0.108,5.372,-2.768,-2.604,-0.772,-1.474,-1.06,-0.54,-0.47,-1.732,-0.506,-0.297,-0.497
'0:00.231',-5.426,-5.316,0.109,5.372,-2.768,-2.603,-0.772,-1.474,-1.062,-0.539,-0.47,-1.73,-0.505,-0.298,-0.497
'0:00.232',-5.421,-5.312,0.108,5.367,-2.764,-2.602,-0.772,-1.474,-1.062,-0.539,-0.47,-1.731,-0.504,-0.296,-0.497
'0:00.233',-5.418,-5.31,0.107,5.364,-2.763,-2.602,-0.77,-1.472,-1.06,-0.538,-0.469,-1.73,-0.505,-0.295,-0.497
'0:00.234',-5.42,-5.311,0.107,5.365,-2.764,-2.602,-0.77,-1.473,-1.06,-0.539,-0.469,-1.732,-0.506,-0.296,-0.497
'0:00.235',-5.42,-5.311,0.108,5.365,-2.764,-2.601,-0.771,-1.474,-1.06,-0.539,-0.47,-1.732,-0.505,-0.294,-0.498
'0:00.236',-5.415,-5.308,0.107,5.361,-2.761,-2.6,-0.771,-1.474,-1.06,-0.537,-0.469,-1.732,-0.505,-0.298,-0.498
'0:00.237',-5.412,-5.305,0.106,5.358,-2.759,-2.599,-0.772,-1.473,-1.06,-0.537,-0.469,-1.732,-0.505,-0.296,-0.498
'0:00.238',-5.412,-5.306,0.106,5.359,-2.76,-2.599,-0.772,-1.474,-1.062,-0.538,-0.469,-1.732,-0.506,-0.295,-0.499
'0:00.239',-5.413,-5.308,0.105,5.361,-2.76,-2.602,-0.771,-1.474,-1.061,-0.539,-0.47,-1.732,-0.507,-0.296,-0.499
'0:00.240',-5.413,-5.308,0.105,5.36,-2.759,-2.601,-0.769,-1.474,-1.06,-0.538,-0.471,-1.732,-0.506,-0.297,-0.499
'0:00.241',-5.412,-5.305,0.106,5.358,-2.759,-2.599,-0.767,-1.472,-1.059,-0.537,-0.468,-1.73,-0.505,-0.297,-0.499
'0:00.242',-5.413,-5.304,0.108,5.359,-2.76,-2.598,-0.769,-1.472,-1.06,-0.537,-0.467,-1.73,-0.506,-0.293,-0.499
'0:00.243',-5.412,-5.305,0.107,5.359,-2.76,-2.599,-0.768,-1.472,-1.06,-0.538,-0.468,-1.732,-0.507,-0.295,-0.5
'0:00.244',-5.415,-5.306,0.108,5.36,-2.761,-2.599,-0.767,-1.471,-1.058,-0.538,-0.468,-1.73,-0.506,-0.295,-0.5
'0:00.245',-5.415,-5.306,0.108,5.361,-2.761,-2.599,-0.767,-1.472,-1.059,-0.536,-0.468,-1.732,-0.507,-0.294,-0.5
'0:00.246',-5.412,-5.304,0.106,5.358,-2.759,-2.599,-0.766,-1.471,-1.058,-0.537,-0.468,-1.732,-0.506,-0.295,-0.5
'0:00.247',-5.41,-5.302,0.107,5.356,-2.758,-2.598,-0.767,-1.47,-1.058,-0.535,-0.468,-1.73,-0.506,-0.296,-0.5
'0:00.248',-5.407,-5.301,0.106,5.354,-2.756,-2.597,-0.767,-1.469,-1.057,-0.535,-0.468,-1.731,-0.506,-0.299,-0.499
'0:00.249',-5.403,-5.298,0.103,5.351,-2.753,-2.597,-0.768,-1.469,-1.056,-0.534,-0.467,-1.73,-0.505,-0.299,-0.499
'0:00.250',-5.402,-5.296,0.104,5.349,-2.753,-2.595,-0.768,-1.469,-1.056,-0.533,-0.466,-1.728,-0.505,-0.297,-0.498
'0:00.251',-5.404,-5.298,0.105,5.351,-2.754,-2.596,-0.766,-1.47,-1.054,-0.533,-0.466,-1.729,-0.506,-0.296,-0.499
'0:00.252',-5.404,-5.298,0.105,5.351,-2.755,-2.596,-0.765,-1.468,-1.054,-0.533,-0.466,-1.728,-0.505,-0.295,-0.498
'0:00.253',-5.402,-5.296,0.105,5.348,-2.753,-2.595,-0.765,-1.467,-1.052,-0.532,-0.466,-1.726,-0.505,-0.295,-0.497
'0:00.254',-5.4,-5.296,0.103,5.348,-2.752,-2.596,-0.766,-1.467,-1.054,-0.531,-0.465,-1.726,-0.506,-0.296,-0.499
'0:00.255',-5.401,-5.295,0.104,5.348,-2.753,-2.595,-0.766,-1.466,-1.053,-0.532,-0.464,-1.726,-0.506,-0.296,-0.499
'0:00.256',-5.401,-5.296,0.103,5.348,-2.752,-2.596,-0.766,-1.468,-1.053,-0.532,-0.464,-1.726,-0.506,-0.299,-0.498
'0:00.257',-5.4,-5.296,0.103,5.348,-2.752,-2.596,-0.765,-1.468,-1.054,-0.533,-0.464,-1.727,-0.506,-0.297,-0.498
'0:00.258',-5.401,-5.296,0.104,5.348,-2.752,-2.596,-0.765,-1.468,-1.054,-0.533,-0.466,-1.726,-0.506,-0.297,-0.499
'0:00.259',-5.399,-5.296,0.102,5.348,-2.751,-2.596,-0.765,-1.468,-1.054,-0.534,-0.465,-1.727,-0.507,-0.299,-0.498
'0:00.260',-5.396,-5.292,0.103,5.343,-2.749,-2.594,-0.763,-1.466,-1.052,-0.533,-0.464,-1.726,-0.507,-0.295,-0.498
'0:00.261',-5.396,-5.293,0.102,5.344,-2.749,-2.595,-0.763,-1.464,-1.05,-0.531,-0.464,-1.725,-0.506,-0.297,-0.499
'0:00.262',-5.396,-5.294,0.102,5.345,-2.749,-2.595,-0.763,-1.464,-1.05,-0.531,-0.464,-1.724,-0.506,-0.298,-0.497
'0:00.263',-5.397,-5.294,0.102,5.346,-2.75,-2.595,-0.763,-1.464,-1.051,-0.531,-0.464,-1.726,-0.507,-0.298,-0.497
'0:00.264',-5.397,-5.293,0.103,5.345,-2.75,-2.595,-0.763,-1.464,-1.05,-0.531,-0.463,-1.726,-0.509,-0.299,-0.499
'0:00.265',-5.392,-5.29,0.102,5.34,-2.747,-2.594,-0.764,-1.462,-1.051,-0.53,-0.462,-1.724,-0.507,-0.302,-0.498
'0:00.266',-5.388,-5.287,0.1,5.338,-2.744,-2.594,-0.764,-1.462,-1.05,-0.529,-0.462,-1.722,-0.506,-0.303,-0.497
'0:00.267',-5.386,-5.285,0.1,5.335,-2.743,-2.592,-0.764,-1.462,-1.049,-0.528,-0.46,-1.722,-0.506,-0.301,-0.497
'0:00.268',-5.385,-5.287,0.099,5.335,-2.741,-2.594,-0.764,-1.462,-1.048,-0.528,-0.459,-1.722,-0.507,-0.303,-0.497
'0:00.269',-5.388,-5.288,0.099,5.338,-2.744,-2.594,-0.766,-1.462,-1.05,-0.529,-0.461,-1.723,-0.507,-0.301,-0.498
'0:00.270',-5.389,-5.289,0.101,5.339,-2.745,-2.594,-0.766,-1.464,-1.05,-0.529,-0.462,-1.724,-0.507,-0.299,-0.498
'0:00.271',-5.392,-5.291,0.101,5.341,-2.747,-2.595,-0.767,-1.464,-1.05,-0.531,-0.462,-1.724,-0.507,-0.3,-0.497
'0:00.272',-5.396,-5.292,0.103,5.343,-2.749,-2.594,-0.767,-1.464,-1.052,-0.531,-0.463,-1.725,-0.508,-0.297,-0.497
'0:00.273',-5.393,-5.288,0.104,5.34,-2.748,-2.591,-0.767,-1.464,-1.049,-0.529,-0.463,-1.724,-0.508,-0.296,-0.497
'0:00.274',-5.391,-5.285,0.105,5.338,-2.748,-2.59,-0.764,-1.46,-1.048,-0.528,-0.46,-1.722,-0.506,-0.294,-0.496
'0:00.275',-5.388,-5.283,0.105,5.335,-2.747,-2.589,-0.763,-1.46,-1.049,-0.526,-0.458,-1.72,-0.505,-0.295,-0.497
'0:00.276',-5.385,-5.282,0.102,5.333,-2.744,-2.59,-0.766,-1.462,-1.05,-0.527,-0.459,-1.722,-0.505,-0.3,-0.496
'0:00.277',-5.386,-5.284,0.102,5.335,-2.744,-2.591,-0.765,-1.462,-1.05,-0.527,-0.46,-1.721,-0.506,-0.3,-0.496
'0:00.278',-5.385,-5.282,0.102,5.333,-2.744,-2.59,-0.765,-1.462,-1.05,-0.526,-0.459,-1.72,-0.506,-0.3,-0.496
'0:00.279',-5.386,-5.282,0.103,5.334,-2.744,-2.59,-0.766,-1.461,-1.051,-0.527,-0.46,-1.722,-0.507,-0.295,-0.496
'0:00.280',-5.389,-5.282,0.106,5.335,-2.748,-2.588,-0.764,-1.46,-1.05,-0.527,-0.459,-1.722,-0.508,-0.291,-0.496
'0:00.281',-5.39,-5.282,0.108,5.335,-2.749,-2.586,-0.764,-1.46,-1.049,-0.527,-0.458,-1.722,-0.507,-0.292,-0.497
'0:00.282',-5.389,-5.282,0.107,5.335,-2.748,-2.587,-0.765,-1.462,-1.051,-0.528,-0.459,-1.721,-0.507,-0.294,-0.498
'0:00.283',-5.388,-5.282,0.105,5.335,-2.747,-2.588,-0.764,-1.462,-1.051,-0.527,-0.46,-1.721,-0.507,-0.298,-0.497
'0:00.284',-5.388,-5.28,0.107,5.335,-2.748,-2.587,-0.764,-1.461,-1.05,-0.527,-0.459,-1.722,-0.507,-0.298,-0.497
'0:00.285',-5.385,-5.276,0.108,5.33,-2.747,-2.583,-0.763,-1.46,-1.05,-0.527,-0.46,-1.72,-0.508,-0.296,-0.497
'0:00.286',-5.383,-5.274,0.108,5.328,-2.745,-2.583,-0.761,-1.458,-1.049,-0.525,-0.458,-1.72,-0.508,-0.296,-0.498
'0:00.287',-5.383,-5.273,0.109,5.327,-2.745,-2.582,-0.759,-1.458,-1.048,-0.523,-0.457,-1.718,-0.507,-0.295,-0.499
'0:00.288',-5.38,-5.274,0.106,5.327,-2.744,-2.583,-0.761,-1.46,-1.05,-0.524,-0.458,-1.72,-0.507,-0.295,-0.499
'0:00.289',-5.38,-5.273,0.107,5.327,-2.744,-2.583,-0.761,-1.459,-1.049,-0.523,-0.457,-1.719,-0.505,-0.296,-0.499
'0:00.290',-5.379,-5.271,0.108,5.325,-2.744,-2.581,-0.76,-1.458,-1.048,-0.523,-0.456,-1.718,-0.505,-0.297,-0.498
'0:00.291',-5.376,-5.269,0.106,5.322,-2.741,-2.58,-0.761,-1.459,-1.049,-0.523,-0.456,-1.718,-0.505,-0.294,-0.497
'0:00.292',-5.378,-5.269,0.11,5.323,-2.744,-2.579,-0.76,-1.459,-1.048,-0.522,-0.455,-1.716,-0.505,-0.291,-0.498
'0:00.293',-5.376,-5.266,0.109,5.321,-2.743,-2.579,-0.76,-1.457,-1.048,-0.521,-0.455,-1.716,-0.504,-0.294,-0.499
'0:00.294',-5.372,-5.261,0.11,5.316,-2.74,-2.575,-0.76,-1.458,-1.046,-0.52,-0.454,-1.714,-0.503,-0.294,-0.499
'0:00.295',-5.373,-5.261,0.112,5.317,-2.742,-2.575,-0.76,-1.458,-1.047,-0.519,-0.453,-1.713,-0.503,-0.293,-0.499
'0:00.296',-5.372,-5.26,0.111,5.316,-2.741,-2.574,-0.759,-1.456,-1.046,-0.519,-0.451,-1.714,-0.503,-0.29,-0.5
'0:00.297',-5.37,-5.259,0.11,5.314,-2.74,-2.574,-0.76,-1.456,-1.046,-0.519,-0.451,-1.714,-0.504,-0.291,-0.5
'0:00.298',-5.366,-5.258,0.107,5.311,-2.736,-2.575,-0.759,-1.456,-1.046,-0.518,-0.452,-1.712,-0.502,-0.297,-0.498
'0:00.299',-5.363,-5.256,0.106,5.309,-2.735,-2.575,-0.76,-1.455,-1.046,-0.517,-0.452,-1.712,-0.501,-0.299,-0.498
'0:00.300',-5.364,-5.256,0.107,5.31,-2.736,-2.574,-0.76,-1.456,-1.046,-0.517,-0.452,-1.712,-0.501,-0.299,-0.498
'0:00.301',-5.367,-5.258,0.108,5.312,-2.737,-2.575,-0.758,-1.454,-1.046,-0.515,-0.452,-1.711,-0.502,-0.299,-0.498
'0:00.302',-5.367,-5.258,0.108,5.313,-2.738,-2.575,-0.758,-1.454,-1.046,-0.514,-0.452,-1.712,-0.502,-0.296,-0.499
'0:00.303',-5.369,-5.259,0.109,5.314,-2.739,-2.575,-0.758,-1.455,-1.046,-0.514,-0.451,-1.712,-0.502,-0.295,-0.499
'0:00.304',-5.37,-5.261,0.108,5.314,-2.739,-2.575,-0.759,-1.456,-1.047,-0.513,-0.452,-1.712,-0.502,-0.296,-0.499
'0:00.305',-5.369,-5.26,0.108,5.314,-2.739,-2.575,-0.76,-1.458,-1.047,-0.514,-0.453,-1.712,-0.5,-0.295,-0.498
'0:00.306',-5.369,-5.261,0.107,5.315,-2.739,-2.576,-0.758,-1.456,-1.047,-0.515,-0.453,-1.712,-0.501,-0.293,-0.499
'0:00.307',-5.368,-5.261,0.106,5.314,-2.737,-2.577,-0.759,-1.456,-1.049,-0.516,-0.453,-1.712,-0.5,-0.294,-0.499
'0:00.308',-5.369,-5.261,0.108,5.314,-2.739,-2.576,-0.759,-1.458,-1.05,-0.517,-0.455,-1.714,-0.501,-0.294,-0.498
'0:00.309',-5.369,-5.26,0.108,5.314,-2.739,-2.575,-0.756,-1.455,-1.047,-0.516,-0.454,-1.712,-0.502,-0.295,-0.499
'0:00.310',-5.367,-5.259,0.108,5.313,-2.738,-2.575,-0.756,-1.456,-1.047,-0.517,-0.453,-1.712,-0.501,-0.298,-0.498
'0:00.311',-5.366,-5.258,0.107,5.311,-2.736,-2.575,-0.754,-1.455,-1.046,-0.516,-0.453,-1.71,-0.499,-0.3,-0.497
'0:00.312',-5.362,-5.255,0.106,5.309,-2.735,-2.574,-0.752,-1.454,-1.044,-0.514,-0.452,-1.709,-0.501,-0.301,-0.498
'0:00.313',-5.363,-5.254,0.108,5.308,-2.736,-2.572,-0.752,-1.454,-1.044,-0.514,-0.451,-1.709,-0.501,-0.299,-0.497
'0:00.314',-5.36,-5.252,0.108,5.306,-2.734,-2.571,-0.751,-1.452,-1.043,-0.513,-0.451,-1.708,-0.501,-0.297,-0.497
'0:00.315',-5.359,-5.249,0.109,5.303,-2.733,-2.57,-0.754,-1.452,-1.044,-0.513,-0.451,-1.708,-0.501,-0.296,-0.498
'0:00.316',-5.357,-5.249,0.108,5.303,-2.733,-2.57,-0.756,-1.452,-1.043,-0.512,-0.45,-1.707,-0.499,-0.297,-0.497
'0:00.317',-5.359,-5.25,0.108,5.305,-2.734,-2.571,-0.756,-1.45,-1.044,-0.512,-0.451,-1.708,-0.499,-0.297,-0.497
'0:00.318',-5.36,-5.248,0.111,5.304,-2.736,-2.568,-0.753,-1.45,-1.042,-0.51,-0.451,-1.706,-0.501,-0.295,-0.498
'0:00.319',-5.357,-5.246,0.111,5.301,-2.734,-2.567,-0.753,-1.449,-1.042,-0.511,-0.45,-1.706,-0.502,-0.294,-0.497
'0:00.320',-5.357,-5.247,0.11,5.301,-2.733,-2.568,-0.753,-1.449,-1.042,-0.514,-0.451,-1.707,-0.502,-0.295,-0.497
'0:00.321',-5.357,-5.248,0.108,5.302,-2.732,-2.57,-0.752,-1.45,-1.042,-0.512,-0.452,-1.708,-0.503,-0.298,-0.498
'0:00.322',-5.356,-5.247,0.108,5.301,-2.732,-2.569,-0.753,-1.451,-1.043,-0.513,-0.454,-1.708,-0.503,-0.297,-0.497
'0:00.323',-5.354,-5.247,0.107,5.301,-2.731,-2.57,-0.752,-1.45,-1.042,-0.514,-0.453,-1.706,-0.502,-0.297,-0.496
'0:00.324',-5.351,-5.245,0.105,5.298,-2.728,-2.57,-0.75,-1.449,-1.042,-0.512,-0.453,-1.707,-0.502,-0.298,-0.497
'0:00.325',-5.351,-5.243,0.107,5.297,-2.729,-2.568,-0.75,-1.45,-1.043,-0.512,-0.452,-1.707,-0.501,-0.295,-0.496
'0:00.326',-5.348,-5.242,0.105,5.295,-2.727,-2.568,-0.75,-1.449,-1.041,-0.51,-0.451,-1.706,-0.501,-0.294,-0.497
'0:00.327',-5.343,-5.239,0.104,5.29,-2.724,-2.567,-0.75,-1.448,-1.041,-0.511,-0.451,-1.704,-0.5,-0.296,-0.496
'0:00.328',-5.34,-5.237,0.103,5.288,-2.721,-2.567,-0.751,-1.448,-1.041,-0.51,-0.451,-1.704,-0.5,-0.3,-0.495
'0:00.329',-5.338,-5.235,0.102,5.286,-2.72,-2.566,-0.75,-1.448,-1.042,-0.509,-0.451,-1.704,-0.5,-0.298,-0.496
'0:00.330',-5.34,-5.236,0.104,5.287,-2.722,-2.566,-0.751,-1.45,-1.044,-0.51,-0.452,-1.704,-0.5,-0.295,-0.496
'0:00.331',-5.34,-5.237,0.103,5.288,-2.722,-2.567,-0.751,-1.45,-1.042,-0.511,-0.452,-1.706,-0.5,-0.296,-0.496
'0:00.332',-5.343,-5.237,0.104,5.29,-2.724,-2.566,-0.75,-1.45,-1.042,-0.513,-0.454,-1.708,-0.501,-0.293,-0.497
'0:00.333',-5.343,-5.237,0.105,5.29,-2.724,-2.566,-0.751,-1.451,-1.044,-0.513,-0.455,-1.708,-0.502,-0.295,-0.497
'0:00.334',-5.343,-5.237,0.104,5.29,-2.724,-2.566,-0.75,-1.452,-1.043,-0.513,-0.455,-1.708,-0.501,-0.294,-0.497
'0:00.335',-5.344,-5.239,0.104,5.291,-2.724,-2.567,-0.75,-1.452,-1.044,-0.513,-0.456,-1.709,-0.5,-0.294,-0.497
'0:00.336',-5.34,-5.237,0.102,5.288,-2.721,-2.567,-0.75,-1.452,-1.044,-0.512,-0.456,-1.709,-0.499,-0.295,-0.497
'0:00.337',-5.337,-5.234,0.102,5.285,-2.72,-2.566,-0.75,-1.45,-1.042,-0.51,-0.455,-1.708,-0.499,-0.295,-0.497
'0:00.338',-5.334,-5.232,0.102,5.283,-2.718,-2.565,-0.75,-1.45,-1.041,-0.508,-0.454,-1.706,-0.498,-0.295,-0.496
'0:00.339',-5.334,-5.234,0.1,5.284,-2.717,-2.567,-0.75,-1.45,-1.04,-0.51,-0.454,-1.706,-0.498,-0.296,-0.495
'0:00.340',-5.337,-5.235,0.101,5.285,-2.719,-2.567,-0.749,-1.45,-1.042,-0.511,-0.455,-1.708,-0.499,-0.293,-0.496
'0:00.341',-5.336,-5.235,0.101,5.285,-2.719,-2.567,-0.75,-1.45,-1.042,-0.512,-0.455,-1.708,-0.499,-0.291,-0.495
'0:00.342',-5.336,-5.237,0.098,5.287,-2.717,-2.57,-0.75,-1.451,-1.044,-0.513,-0.456,-1.709,-0.498,-0.297,-0.495
'0:00.343',-5.338,-5.239,0.098,5.288,-2.718,-2.571,-0.75,-1.452,-1.043,-0.514,-0.456,-1.709,-0.499,-0.3,-0.495
'0:00.344',-5.34,-5.24,0.099,5.29,-2.72,-2.571,-0.753,-1.453,-1.044,-0.516,-0.457,-1.71,-0.499,-0.297,-0.495
'0:00.345',-5.338,-5.239,0.099,5.288,-2.718,-2.57,-0.753,-1.453,-1.044,-0.515,-0.457,-1.711,-0.499,-0.294,-0.496
'0:00.346',-5.335,-5.236,0.099,5.285,-2.717,-2.568,-0.753,-1.451,-1.042,-0.515,-0.456,-1.71,-0.5,-0.294,-0.496
'0:00.347',-5.335,-5.234,0.101,5.284,-2.717,-2.566,-0.754,-1.452,-1.042,-0.515,-0.457,-1.71,-0.5,-0.294,-0.495
'0:00.348',-5.335,-5.236,0.099,5.285,-2.717,-2.568,-0.755,-1.453,-1.042,-0.515,-0.455,-1.71,-0.5,-0.296,-0.495
'0:00.349',-5.335,-5.237,0.098,5.285,-2.716,-2.569,-0.754,-1.452,-1.042,-0.515,-0.455,-1.709,-0.5,-0.295,-0.496
'0:00.350',-5.335,-5.236,0.1,5.285,-2.717,-2.568,-0.755,-1.452,-1.043,-0.516,-0.456,-1.709,-0.499,-0.293,-0.495
'0:00.351',-5.336,-5.236,0.1,5.285,-2.717,-2.568,-0.754,-1.452,-1.042,-0.515,-0.456,-1.709,-0.5,-0.293,-0.495
'0:00.352',-5.334,-5.236,0.098,5.285,-2.716,-2.568,-0.755,-1.452,-1.044,-0.516,-0.457,-1.71,-0.499,-0.294,-0.494
'0:00.353',-5.335,-5.238,0.096,5.286,-2.716,-2.571,-0.756,-1.454,-1.044,-0.519,-0.457,-1.71,-0.499,-0.297,-0.494
'0:00.354',-5.335,-5.238,0.097,5.287,-2.716,-2.571,-0.756,-1.454,-1.045,-0.519,-0.458,-1.71,-0.499,-0.3,-0.495
'0:00.355',-5.336,-5.237,0.098,5.287,-2.717,-2.57,-0.754,-1.454,-1.045,-0.519,-0.458,-1.71,-0.499,-0.297,-0.496
'0:00.356',-5.338,-5.237,0.099,5.287,-2.718,-2.569,-0.753,-1.452,-1.044,-0.519,-0.458,-1.71,-0.499,-0.294,-0.495
'0:00.357',-5.337,-5.236,0.1,5.286,-2.718,-2.568,-0.754,-1.452,-1.044,-0.518,-0.455,-1.708,-0.499,-0.295,-0.495
'0:00.358',-5.337,-5.236,0.101,5.286,-2.719,-2.567,-0.752,-1.451,-1.044,-0.518,-0.454,-1.709,-0.5,-0.295,-0.496
'0:00.359',-5.336,-5.235,0.101,5.285,-2.718,-2.567,-0.752,-1.452,-1.044,-0.519,-0.455,-1.71,-0.501,-0.296,-0.496
'0:00.360',-5.333,-5.234,0.099,5.284,-2.716,-2.567,-0.752,-1.452,-1.044,-0.519,-0.456,-1.708,-0.498,-0.297,-0.495
'0:00.361',-5.337,-5.236,0.101,5.286,-2.719,-2.567,-0.75,-1.452,-1.044,-0.518,-0.456,-1.708,-0.499,-0.296,-0.496
'0:00.362',-5.338,-5.236,0.102,5.287,-2.72,-2.567,-0.75,-1.451,-1.044,-0.518,-0.456,-1.707,-0.499,-0.296,-0.496
'0:00.363',-5.337,-5.235,0.102,5.286,-2.719,-2.567,-0.754,-1.452,-1.044,-0.518,-0.457,-1.708,-0.498,-0.297,-0.496
'0:00.364',-5.336,-5.236,0.1,5.286,-2.718,-2.568,-0.755,-1.454,-1.046,-0.519,-0.457,-1.708,-0.499,-0.295,-0.496
'0:00.365',-5.333,-5.234,0.099,5.284,-2.716,-2.567,-0.752,-1.452,-1.042,-0.516,-0.455,-1.707,-0.499,-0.297,-0.497
'0:00.366',-5.333,-5.233,0.099,5.283,-2.716,-2.567,-0.753,-1.452,-1.042,-0.516,-0.454,-1.708,-0.499,-0.299,-0.497
'0:00.367',-5.332,-5.232,0.1,5.282,-2.716,-2.567,-0.753,-1.452,-1.043,-0.516,-0.455,-1.706,-0.498,-0.3,-0.496
'0:00.368',-5.33,-5.231,0.097,5.28,-2.713,-2.567,-0.752,-1.45,-1.041,-0.514,-0.454,-1.705,-0.497,-0.299,-0.497
'0:00.369',-5.33,-5.231,0.099,5.28,-2.715,-2.566,-0.752,-1.452,-1.041,-0.514,-0.452,-1.706,-0.498,-0.296,-0.498
'0:00.370',-5.331,-5.232,0.099,5.282,-2.715,-2.566,-0.754,-1.452,-1.044,-0.515,-0.453,-1.706,-0.496,-0.298,-0.497
'0:00.371',-5.333,-5.236,0.098,5.284,-2.716,-2.569,-0.753,-1.452,-1.044,-0.516,-0.452,-1.706,-0.497,-0.297,-0.496
'0:00.372',-5.338,-5.237,0.102,5.287,-2.72,-2.567,-0.752,-1.453,-1.043,-0.515,-0.454,-1.705,-0.497,-0.294,-0.496
'0:00.373',-5.34,-5.237,0.102,5.288,-2.721,-2.567,-0.753,-1.454,-1.044,-0.516,-0.455,-1.706,-0.497,-0.294,-0.496
'0:00.374',-5.34,-5.239,0.101,5.289,-2.72,-2.569,-0.753,-1.454,-1.043,-0.516,-0.453,-1.706,-0.497,-0.296,-0.496
'0:00.375',-5.338,-5.239,0.099,5.288,-2.717,-2.57,-0.753,-1.452,-1.044,-0.515,-0.455,-1.706,-0.495,-0.298,-0.495
'0:00.376',-5.34,-5.24,0.099,5.29,-2.72,-2.57,-0.756,-1.454,-1.046,-0.518,-0.456,-1.708,-0.497,-0.297,-0.495
'0:00.377',-5.346,-5.245,0.1,5.295,-2.723,-2.572,-0.757,-1.457,-1.046,-0.52,-0.457,-1.71,-0.499,-0.295,-0.495
'0:00.378',-5.346,-5.247,0.099,5.296,-2.723,-2.574,-0.758,-1.457,-1.046,-0.519,-0.456,-1.711,-0.5,-0.294,-0.496
'0:00.379',-5.346,-5.247,0.099,5.296,-2.723,-2.574,-0.758,-1.456,-1.045,-0.519,-0.456,-1.71,-0.499,-0.292,-0.495
'0:00.380',-5.346,-5.246,0.1,5.295,-2.723,-2.574,-0.758,-1.456,-1.046,-0.52,-0.456,-1.71,-0.499,-0.293,-0.494
'0:00.381',-5.343,-5.245,0.099,5.294,-2.721,-2.573,-0.757,-1.454,-1.044,-0.518,-0.454,-1.71,-0.5,-0.295,-0.495
'0:00.382',-5.341,-5.245,0.096,5.293,-2.719,-2.574,-0.758,-1.453,-1.044,-0.517,-0.454,-1.709,-0.499,-0.297,-0.494
'0:00.383',-5.34,-5.244,0.096,5.292,-2.718,-2.574,-0.757,-1.453,-1.044,-0.518,-0.453,-1.708,-0.498,-0.297,-0.494
'0:00.384',-5.338,-5.243,0.094,5.29,-2.716,-2.574,-0.756,-1.453,-1.043,-0.517,-0.453,-1.706,-0.496,-0.299,-0.493
'0:00.385',-5.338,-5.244,0.094,5.29,-2.716,-2.575,-0.756,-1.454,-1.044,-0.517,-0.454,-1.707,-0.497,-0.299,-0.494
'0:00.386',-5.339,-5.244,0.095,5.291,-2.717,-2.574,-0.756,-1.454,-1.044,-0.517,-0.453,-1.708,-0.497,-0.297,-0.494
'0:00.387',-5.342,-5.247,0.095,5.295,-2.719,-2.576,-0.758,-1.456,-1.046,-0.519,-0.455,-1.708,-0.497,-0.296,-0.494
'0:00.388',-5.347,-5.252,0.095,5.299,-2.721,-2.578,-0.759,-1.458,-1.048,-0.52,-0.455,-1.71,-0.499,-0.294,-0.494
'0:00.389',-5.35,-5.254,0.096,5.301,-2.723,-2.579,-0.757,-1.456,-1.047,-0.52,-0.454,-1.71,-0.5,-0.293,-0.495
'0:00.390',-5.35,-5.253,0.096,5.301,-2.723,-2.579,-0.757,-1.454,-1.045,-0.519,-0.453,-1.708,-0.5,-0.291,-0.495
'0:00.391',-5.351,-5.253,0.098,5.302,-2.724,-2.578,-0.757,-1.454,-1.046,-0.519,-0.453,-1.71,-0.5,-0.288,-0.495
'0:00.392',-5.353,-5.256,0.097,5.304,-2.725,-2.579,-0.759,-1.454,-1.046,-0.519,-0.453,-1.711,-0.5,-0.289,-0.496
'0:00.393',-5.348,-5.253,0.095,5.3,-2.721,-2.579,-0.76,-1.456,-1.046,-0.518,-0.452,-1.71,-0.499,-0.294,-0.495
'0:00.394',-5.348,-5.252,0.095,5.3,-2.721,-2.579,-0.76,-1.456,-1.048,-0.52,-0.453,-1.711,-0.498,-0.298,-0.493
'0:00.395',-5.348,-5.255,0.093,5.301,-2.72,-2.581,-0.762,-1.456,-1.048,-0.518,-0.452,-1.71,-0.499,-0.296,-0.493
'0:00.396',-5.348,-5.255,0.092,5.301,-2.72,-2.581,-0.763,-1.456,-1.048,-0.517,-0.452,-1.71,-0.499,-0.298,-0.493
'0:00.397',-5.351,-5.258,0.093,5.303,-2.722,-2.582,-0.763,-1.457,-1.049,-0.518,-0.453,-1.712,-0.5,-0.301,-0.494
'0:00.398',-5.351,-5.258,0.092,5.304,-2.721,-2.583,-0.765,-1.458,-1.05,-0.52,-0.454,-1.714,-0.5,-0.299,-0.494
'0:00.399',-5.349,-5.256,0.093,5.303,-2.721,-2.582,-0.766,-1.458,-1.049,-0.52,-0.454,-1.713,-0.5,-0.3,-0.495
'0:00.400',-5.349,-5.255,0.093,5.302,-2.721,-2.581,-0.764,-1.457,-1.05,-0.518,-0.453,-1.711,-0.499,-0.298,-0.496
'0:00.401',-5.351,-5.255,0.096,5.303,-2.723,-2.579,-0.762,-1.456,-1.048,-0.518,-0.452,-1.712,-0.499,-0.296,-0.496
'0:00.402',-5.351,-5.252,0.099,5.301,-2.724,-2.576,-0.76,-1.454,-1.047,-0.517,-0.452,-1.712,-0.5,-0.292,-0.497
'0:00.403',-5.348,-5.248,0.1,5.298,-2.724,-2.575,-0.76,-1.455,-1.048,-0.518,-0.453,-1.713,-0.499,-0.288,-0.498
'0:00.404',-5.348,-5.25,0.097,5.298,-2.723,-2.576,-0.757,-1.454,-1.046,-0.517,-0.452,-1.714,-0.499,-0.292,-0.499
'0:00.405',-5.346,-5.251,0.095,5.298,-2.72,-2.579,-0.756,-1.454,-1.046,-0.516,-0.453,-1.712,-0.498,-0.293,-0.501
'0:00.406',-5.346,-5.249,0.096,5.298,-2.721,-2.576,-0.756,-1.452,-1.046,-0.515,-0.452,-1.712,-0.497,-0.292,-0.502
'0:00.407',-5.342,-5.244,0.098,5.293,-2.72,-2.573,-0.755,-1.45,-1.044,-0.513,-0.45,-1.71,-0.496,-0.291,-0.502
'0:00.408',-5.34,-5.241,0.099,5.29,-2.72,-2.571,-0.756,-1.45,-1.044,-0.512,-0.451,-1.71,-0.495,-0.29,-0.502
'0:00.409',-5.339,-5.239,0.099,5.289,-2.72,-2.57,-0.756,-1.451,-1.044,-0.512,-0.451,-1.71,-0.495,-0.289,-0.501
'0:00.410',-5.338,-5.239,0.099,5.288,-2.718,-2.57,-0.758,-1.451,-1.045,-0.513,-0.451,-1.71,-0.496,-0.292,-0.501
'0:00.411',-5.34,-5.242,0.098,5.29,-2.719,-2.571,-0.759,-1.45,-1.044,-0.513,-0.45,-1.71,-0.495,-0.293,-0.499
'0:00.412',-5.338,-5.239,0.098,5.288,-2.718,-2.571,-0.759,-1.449,-1.044,-0.513,-0.45,-1.71,-0.494,-0.292,-0.499
'0:00.413',-5.333,-5.232,0.101,5.282,-2.716,-2.566,-0.758,-1.446,-1.04,-0.51,-0.447,-1.708,-0.492,-0.288,-0.501
'0:00.414',-5.327,-5.223,0.103,5.275,-2.716,-2.56,-0.758,-1.442,-1.036,-0.506,-0.443,-1.706,-0.49,-0.282,-0.504
'0:00.415',-5.324,-5.216,0.107,5.27,-2.716,-2.554,-0.755,-1.436,-1.03,-0.501,-0.439,-1.702,-0.488,-0.277,-0.507
'0:00.416',-5.32,-5.21,0.11,5.264,-2.715,-2.55,-0.749,-1.428,-1.023,-0.494,-0.435,-1.7,-0.486,-0.274,-0.512
'0:00.417',-5.319,-5.203,0.116,5.261,-2.717,-2.543,-0.745,-1.423,-1.02,-0.491,-0.434,-1.698,-0.484,-0.27,-0.516
'0:00.418',-5.321,-5.196,0.125,5.258,-2.723,-2.535,-0.739,-1.418,-1.014,-0.486,-0.429,-1.696,-0.482,-0.258,-0.521
'0:00.419',-5.322,-5.194,0.128,5.258,-2.725,-2.533,-0.736,-1.415,-1.011,-0.483,-0.427,-1.695,-0.481,-0.256,-0.523
'0:00.420',-5.322,-5.192,0.13,5.257,-2.726,-2.531,-0.734,-1.411,-1.007,-0.482,-0.427,-1.694,-0.48,-0.252,-0.525
'0:00.421',-5.318,-5.189,0.129,5.253,-2.723,-2.53,-0.734,-1.41,-1.006,-0.482,-0.426,-1.694,-0.478,-0.247,-0.526
'0:00.422',-5.316,-5.187,0.129,5.251,-2.722,-2.529,-0.734,-1.411,-1.006,-0.482,-0.427,-1.694,-0.479,-0.253,-0.526
'0:00.423',-5.316,-5.184,0.133,5.25,-2.724,-2.526,-0.732,-1.409,-1.004,-0.48,-0.424,-1.69,-0.478,-0.25,-0.526
'0:00.424',-5.315,-5.179,0.135,5.247,-2.725,-2.522,-0.731,-1.407,-1.003,-0.477,-0.421,-1.688,-0.477,-0.245,-0.527
'0:00.425',-5.316,-5.175,0.141,5.245,-2.728,-2.517,-0.73,-1.403,-1.002,-0.476,-0.422,-1.69,-0.477,-0.239,-0.53
'0:00.426',-5.315,-5.169,0.145,5.242,-2.73,-2.511,-0.727,-1.399,-0.997,-0.472,-0.42,-1.688,-0.475,-0.233,-0.533
'0:00.427',-5.314,-5.165,0.148,5.239,-2.731,-2.508,-0.723,-1.395,-0.993,-0.468,-0.417,-1.687,-0.474,-0.23,-0.537
'0:00.428',-5.312,-5.162,0.15,5.237,-2.731,-2.506,-0.721,-1.391,-0.99,-0.465,-0.415,-1.685,-0.473,-0.229,-0.539
'0:00.429',-5.314,-5.16,0.154,5.237,-2.735,-2.502,-0.72,-1.391,-0.991,-0.464,-0.415,-1.687,-0.474,-0.228,-0.541
'0:00.430',-5.317,-5.16,0.156,5.239,-2.736,-2.502,-0.722,-1.393,-0.991,-0.464,-0.416,-1.687,-0.476,-0.223,-0.541
'0:00.431',-5.316,-5.159,0.158,5.237,-2.736,-2.501,-0.721,-1.393,-0.992,-0.465,-0.418,-1.687,-0.479,-0.22,-0.54
'0:00.432',-5.317,-5.16,0.157,5.239,-2.737,-2.502,-0.718,-1.393,-0.992,-0.465,-0.418,-1.688,-0.481,-0.217,-0.54
'0:00.433',-5.321,-5.159,0.161,5.239,-2.74,-2.499,-0.715,-1.39,-0.99,-0.464,-0.419,-1.688,-0.482,-0.214,-0.542
'0:00.434',-5.322,-5.158,0.164,5.239,-2.743,-2.497,-0.709,-1.388,-0.99,-0.463,-0.421,-1.69,-0.484,-0.215,-0.543
'0:00.435',-5.324,-5.162,0.162,5.243,-2.743,-2.501,-0.706,-1.391,-0.992,-0.466,-0.424,-1.692,-0.486,-0.216,-0.542
'0:00.436',-5.329,-5.165,0.164,5.246,-2.746,-2.5,-0.709,-1.397,-0.996,-0.468,-0.425,-1.694,-0.489,-0.214,-0.539
'0:00.437',-5.327,-5.165,0.161,5.246,-2.744,-2.502,-0.712,-1.397,-0.997,-0.469,-0.426,-1.694,-0.487,-0.218,-0.538
'0:00.438',-5.323,-5.167,0.156,5.245,-2.74,-2.505,-0.717,-1.397,-0.998,-0.471,-0.427,-1.694,-0.486,-0.223,-0.536
'0:00.439',-5.322,-5.173,0.148,5.248,-2.736,-2.512,-0.722,-1.402,-1.001,-0.474,-0.427,-1.695,-0.487,-0.228,-0.531
'0:00.440',-5.322,-5.179,0.143,5.25,-2.732,-2.518,-0.727,-1.404,-1.002,-0.476,-0.428,-1.692,-0.484,-0.232,-0.528
'0:00.441',-5.322,-5.179,0.141,5.25,-2.732,-2.518,-0.733,-1.403,-1,-0.474,-0.426,-1.692,-0.481,-0.227,-0.526
'0:00.442',-5.318,-5.179,0.139,5.248,-2.728,-2.521,-0.732,-1.399,-0.998,-0.471,-0.424,-1.69,-0.477,-0.228,-0.528
'0:00.443',-5.316,-5.181,0.134,5.248,-2.724,-2.523,-0.732,-1.397,-0.997,-0.471,-0.423,-1.69,-0.475,-0.234,-0.528
'0:00.444',-5.316,-5.183,0.133,5.25,-2.724,-2.525,-0.731,-1.394,-0.995,-0.47,-0.421,-1.69,-0.472,-0.233,-0.53
'0:00.445',-5.314,-5.181,0.132,5.247,-2.723,-2.525,-0.729,-1.387,-0.988,-0.465,-0.416,-1.685,-0.467,-0.231,-0.532
'0:00.446',-5.308,-5.175,0.133,5.24,-2.72,-2.521,-0.73,-1.382,-0.982,-0.459,-0.411,-1.679,-0.462,-0.227,-0.533
'0:00.447',-5.299,-5.167,0.132,5.232,-2.716,-2.517,-0.731,-1.375,-0.975,-0.453,-0.406,-1.674,-0.456,-0.228,-0.535
'0:00.448',-5.293,-5.163,0.129,5.228,-2.711,-2.517,-0.736,-1.375,-0.973,-0.452,-0.405,-1.672,-0.453,-0.232,-0.534
'0:00.449',-5.285,-5.163,0.122,5.224,-2.704,-2.52,-0.737,-1.376,-0.974,-0.453,-0.404,-1.671,-0.452,-0.237,-0.532
'0:00.450',-5.281,-5.165,0.116,5.223,-2.699,-2.524,-0.738,-1.375,-0.973,-0.454,-0.403,-1.671,-0.45,-0.241,-0.532
'0:00.451',-5.282,-5.158,0.123,5.22,-2.703,-2.517,-0.733,-1.373,-0.969,-0.449,-0.399,-1.668,-0.45,-0.233,-0.536
'0:00.452',-5.282,-5.154,0.129,5.218,-2.705,-2.512,-0.729,-1.369,-0.965,-0.445,-0.395,-1.665,-0.447,-0.23,-0.54
'0:00.453',-5.285,-5.155,0.129,5.22,-2.707,-2.513,-0.727,-1.366,-0.965,-0.446,-0.395,-1.667,-0.446,-0.23,-0.542
'0:00.454',-5.285,-5.157,0.127,5.221,-2.706,-2.515,-0.724,-1.366,-0.964,-0.445,-0.395,-1.667,-0.445,-0.232,-0.544
'0:00.455',-5.282,-5.158,0.124,5.22,-2.704,-2.517,-0.728,-1.371,-0.968,-0.448,-0.394,-1.668,-0.445,-0.236,-0.541
'0:00.456',-5.282,-5.162,0.119,5.221,-2.7,-2.521,-0.738,-1.38,-0.974,-0.451,-0.395,-1.669,-0.443,-0.241,-0.534
'0:00.457',-5.282,-5.171,0.11,5.226,-2.696,-2.53,-0.75,-1.391,-0.982,-0.455,-0.397,-1.667,-0.441,-0.253,-0.527
'0:00.458',-5.28,-5.17,0.109,5.225,-2.695,-2.53,-0.76,-1.397,-0.985,-0.456,-0.397,-1.667,-0.441,-0.25,-0.523
'0:00.459',-5.279,-5.165,0.113,5.222,-2.696,-2.526,-0.766,-1.4,-0.984,-0.454,-0.393,-1.664,-0.439,-0.243,-0.521
'0:00.460',-5.278,-5.16,0.117,5.219,-2.697,-2.522,-0.772,-1.402,-0.984,-0.453,-0.391,-1.663,-0.439,-0.239,-0.521
'0:00.461',-5.276,-5.157,0.118,5.216,-2.697,-2.519,-0.779,-1.403,-0.984,-0.452,-0.392,-1.661,-0.439,-0.235,-0.518
'0:00.462',-5.275,-5.159,0.116,5.216,-2.696,-2.522,-0.788,-1.407,-0.987,-0.454,-0.392,-1.659,-0.436,-0.239,-0.511
'0:00.463',-5.277,-5.162,0.114,5.219,-2.695,-2.524,-0.796,-1.411,-0.991,-0.457,-0.394,-1.661,-0.436,-0.241,-0.507
'0:00.464',-5.277,-5.169,0.107,5.223,-2.692,-2.53,-0.798,-1.412,-0.992,-0.459,-0.396,-1.663,-0.435,-0.246,-0.505
'0:00.465',-5.277,-5.175,0.101,5.226,-2.688,-2.537,-0.799,-1.415,-0.996,-0.463,-0.397,-1.663,-0.436,-0.252,-0.502
'0:00.466',-5.277,-5.183,0.095,5.229,-2.686,-2.544,-0.799,-1.419,-1,-0.467,-0.402,-1.665,-0.437,-0.26,-0.5
'0:00.467',-5.28,-5.194,0.086,5.237,-2.683,-2.554,-0.796,-1.423,-1.004,-0.473,-0.406,-1.669,-0.441,-0.272,-0.498
'0:00.468',-5.282,-5.205,0.077,5.244,-2.679,-2.564,-0.794,-1.423,-1.008,-0.476,-0.411,-1.672,-0.441,-0.281,-0.497
'0:00.469',-5.279,-5.213,0.066,5.246,-2.672,-2.574,-0.794,-1.423,-1.008,-0.479,-0.413,-1.673,-0.44,-0.292,-0.497
'0:00.470',-5.282,-5.225,0.058,5.253,-2.67,-2.583,-0.798,-1.427,-1.012,-0.484,-0.415,-1.677,-0.442,-0.3,-0.495
'0:00.471',-5.283,-5.23,0.053,5.256,-2.667,-2.588,-0.797,-1.425,-1.01,-0.484,-0.417,-1.677,-0.439,-0.306,-0.495
'0:00.472',-5.28,-5.23,0.051,5.255,-2.665,-2.59,-0.79,-1.418,-1.006,-0.481,-0.415,-1.675,-0.438,-0.308,-0.499
'0:00.473',-5.285,-5.231,0.053,5.258,-2.669,-2.589,-0.785,-1.416,-1.004,-0.48,-0.416,-1.677,-0.439,-0.307,-0.504
'0:00.474',-5.29,-5.237,0.053,5.263,-2.671,-2.591,-0.783,-1.417,-1.008,-0.484,-0.42,-1.681,-0.441,-0.308,-0.506
'0:00.475',-5.295,-5.242,0.053,5.268,-2.674,-2.594,-0.782,-1.425,-1.018,-0.492,-0.426,-1.686,-0.448,-0.309,-0.503
'0:00.476',-5.298,-5.248,0.05,5.273,-2.674,-2.599,-0.78,-1.431,-1.026,-0.499,-0.433,-1.69,-0.451,-0.315,-0.501
'0:00.477',-5.303,-5.258,0.044,5.28,-2.673,-2.607,-0.779,-1.436,-1.03,-0.503,-0.434,-1.692,-0.452,-0.321,-0.5
'0:00.478',-5.304,-5.261,0.043,5.282,-2.674,-2.609,-0.781,-1.443,-1.036,-0.507,-0.438,-1.694,-0.455,-0.318,-0.496
'0:00.479',-5.303,-5.261,0.042,5.282,-2.672,-2.61,-0.784,-1.45,-1.042,-0.511,-0.441,-1.696,-0.455,-0.318,-0.491
'0:00.480',-5.3,-5.259,0.041,5.279,-2.67,-2.61,-0.788,-1.457,-1.048,-0.516,-0.443,-1.695,-0.456,-0.319,-0.487
'0:00.481',-5.297,-5.256,0.041,5.277,-2.669,-2.607,-0.793,-1.464,-1.056,-0.522,-0.445,-1.697,-0.458,-0.315,-0.482
'0:00.482',-5.298,-5.258,0.041,5.277,-2.67,-2.608,-0.792,-1.47,-1.061,-0.525,-0.448,-1.698,-0.459,-0.315,-0.479
'0:00.483',-5.298,-5.257,0.042,5.277,-2.67,-2.608,-0.792,-1.476,-1.063,-0.528,-0.451,-1.698,-0.462,-0.313,-0.478
'0:00.484',-5.298,-5.255,0.043,5.277,-2.671,-2.606,-0.794,-1.48,-1.067,-0.531,-0.452,-1.698,-0.464,-0.311,-0.476
'0:00.485',-5.303,-5.26,0.044,5.282,-2.674,-2.608,-0.795,-1.483,-1.071,-0.535,-0.454,-1.7,-0.466,-0.313,-0.475
'0:00.486',-5.305,-5.264,0.042,5.285,-2.673,-2.611,-0.795,-1.49,-1.077,-0.541,-0.46,-1.705,-0.47,-0.317,-0.474
'0:00.487',-5.308,-5.266,0.042,5.287,-2.675,-2.612,-0.793,-1.492,-1.079,-0.545,-0.463,-1.708,-0.473,-0.32,-0.472
'0:00.488',-5.312,-5.269,0.042,5.29,-2.676,-2.614,-0.792,-1.492,-1.077,-0.545,-0.463,-1.708,-0.474,-0.32,-0.474
'0:00.489',-5.311,-5.269,0.042,5.29,-2.675,-2.614,-0.79,-1.49,-1.077,-0.546,-0.463,-1.708,-0.474,-0.322,-0.476
'0:00.490',-5.314,-5.272,0.042,5.293,-2.678,-2.615,-0.789,-1.491,-1.08,-0.547,-0.465,-1.71,-0.476,-0.322,-0.475
'0:00.491',-5.319,-5.273,0.045,5.295,-2.682,-2.614,-0.789,-1.492,-1.081,-0.549,-0.467,-1.713,-0.479,-0.318,-0.474
'0:00.492',-5.319,-5.272,0.048,5.296,-2.683,-2.612,-0.788,-1.49,-1.081,-0.549,-0.467,-1.714,-0.48,-0.317,-0.475
'0:00.493',-5.322,-5.277,0.045,5.298,-2.683,-2.615,-0.791,-1.494,-1.083,-0.551,-0.47,-1.716,-0.482,-0.319,-0.475
'0:00.494',-5.324,-5.279,0.045,5.301,-2.685,-2.617,-0.79,-1.496,-1.085,-0.554,-0.473,-1.72,-0.484,-0.32,-0.475
'0:00.495',-5.329,-5.281,0.048,5.304,-2.688,-2.616,-0.789,-1.497,-1.087,-0.557,-0.475,-1.722,-0.487,-0.319,-0.474
'0:00.496',-5.334,-5.284,0.05,5.309,-2.692,-2.617,-0.788,-1.499,-1.089,-0.561,-0.478,-1.727,-0.493,-0.318,-0.473
'0:00.497',-5.334,-5.284,0.051,5.309,-2.692,-2.616,-0.785,-1.496,-1.087,-0.558,-0.479,-1.727,-0.494,-0.322,-0.476
'0:00.498',-5.335,-5.282,0.053,5.308,-2.694,-2.614,-0.781,-1.492,-1.083,-0.555,-0.477,-1.73,-0.496,-0.319,-0.481
'0:00.499',-5.343,-5.282,0.061,5.312,-2.701,-2.611,-0.777,-1.488,-1.079,-0.554,-0.477,-1.732,-0.498,-0.314,-0.485
'0:00.500',-5.348,-5.28,0.068,5.314,-2.708,-2.606,-0.769,-1.48,-1.073,-0.549,-0.475,-1.732,-0.501,-0.308,-0.49
'0:00.501',-5.354,-5.279,0.074,5.316,-2.713,-2.602,-0.765,-1.474,-1.067,-0.544,-0.472,-1.732,-0.502,-0.305,-0.495
'0:00.502',-5.356,-5.28,0.076,5.318,-2.716,-2.602,-0.764,-1.474,-1.067,-0.543,-0.473,-1.732,-0.502,-0.307,-0.495
'0:00.503',-5.357,-5.281,0.076,5.319,-2.716,-2.602,-0.766,-1.476,-1.069,-0.545,-0.474,-1.734,-0.504,-0.307,-0.494
'0:00.504',-5.359,-5.279,0.08,5.319,-2.719,-2.6,-0.767,-1.477,-1.069,-0.545,-0.474,-1.732,-0.504,-0.301,-0.493
'0:00.505',-5.357,-5.279,0.079,5.317,-2.718,-2.6,-0.769,-1.479,-1.071,-0.546,-0.476,-1.734,-0.506,-0.304,-0.491
'0:00.506',-5.358,-5.28,0.077,5.319,-2.717,-2.602,-0.772,-1.484,-1.075,-0.55,-0.48,-1.736,-0.509,-0.309,-0.487
'0:00.507',-5.359,-5.28,0.078,5.319,-2.718,-2.601,-0.772,-1.486,-1.077,-0.552,-0.48,-1.736,-0.511,-0.308,-0.484
'0:00.508',-5.356,-5.279,0.078,5.317,-2.717,-2.6,-0.771,-1.486,-1.079,-0.552,-0.481,-1.736,-0.511,-0.312,-0.483
'0:00.509',-5.358,-5.28,0.079,5.319,-2.718,-2.6,-0.774,-1.49,-1.083,-0.556,-0.484,-1.738,-0.514,-0.315,-0.482
'0:00.510',-5.358,-5.282,0.076,5.32,-2.716,-2.603,-0.775,-1.491,-1.083,-0.556,-0.483,-1.738,-0.514,-0.312,-0.481
'0:00.511',-5.357,-5.284,0.073,5.32,-2.715,-2.606,-0.777,-1.493,-1.085,-0.557,-0.486,-1.738,-0.513,-0.313,-0.48
'0:00.512',-5.36,-5.288,0.072,5.324,-2.716,-2.608,-0.778,-1.495,-1.089,-0.559,-0.488,-1.74,-0.515,-0.316,-0.48
'0:00.513',-5.362,-5.288,0.074,5.325,-2.718,-2.607,-0.779,-1.496,-1.09,-0.56,-0.489,-1.74,-0.514,-0.316,-0.479
'0:00.514',-5.361,-5.287,0.073,5.324,-2.717,-2.607,-0.782,-1.497,-1.091,-0.56,-0.489,-1.74,-0.514,-0.314,-0.478
'0:00.515',-5.356,-5.285,0.072,5.321,-2.714,-2.606,-0.78,-1.497,-1.091,-0.56,-0.487,-1.738,-0.513,-0.317,-0.478
'0:00.516',-5.353,-5.282,0.071,5.317,-2.712,-2.606,-0.781,-1.498,-1.091,-0.56,-0.486,-1.737,-0.512,-0.32,-0.476
'0:00.517',-5.353,-5.285,0.068,5.318,-2.71,-2.608,-0.781,-1.497,-1.09,-0.559,-0.487,-1.736,-0.512,-0.321,-0.475
'0:00.518',-5.353,-5.282,0.07,5.317,-2.711,-2.606,-0.781,-1.497,-1.087,-0.559,-0.486,-1.735,-0.513,-0.321,-0.476
'0:00.519',-5.354,-5.282,0.072,5.318,-2.713,-2.605,-0.781,-1.496,-1.088,-0.559,-0.486,-1.736,-0.515,-0.319,-0.477
'0:00.520',-5.357,-5.285,0.072,5.321,-2.715,-2.606,-0.783,-1.498,-1.089,-0.56,-0.487,-1.736,-0.515,-0.319,-0.476
'0:00.521',-5.356,-5.283,0.073,5.319,-2.715,-2.604,-0.783,-1.5,-1.089,-0.561,-0.488,-1.738,-0.516,-0.319,-0.477
'0:00.522',-5.359,-5.287,0.072,5.322,-2.716,-2.607,-0.784,-1.5,-1.091,-0.561,-0.489,-1.738,-0.517,-0.316,-0.476
'0:00.523',-5.359,-5.286,0.072,5.322,-2.715,-2.607,-0.785,-1.5,-1.091,-0.562,-0.489,-1.738,-0.515,-0.316,-0.476
'0:00.524',-5.357,-5.285,0.073,5.321,-2.715,-2.606,-0.785,-1.5,-1.091,-0.561,-0.489,-1.737,-0.516,-0.318,-0.476
'0:00.525',-5.357,-5.285,0.073,5.321,-2.715,-2.606,-0.785,-1.5,-1.091,-0.561,-0.489,-1.737,-0.516,-0.318,-0.475
'0:00.526',-5.354,-5.282,0.073,5.317,-2.713,-2.604,-0.785,-1.501,-1.091,-0.56,-0.489,-1.736,-0.515,-0.318,-0.477
'0:00.527',-5.356,-5.283,0.072,5.319,-2.713,-2.605,-0.783,-1.5,-1.089,-0.56,-0.487,-1.736,-0.516,-0.318,-0.476
'0:00.528',-5.351,-5.279,0.071,5.315,-2.711,-2.604,-0.781,-1.498,-1.087,-0.56,-0.486,-1.735,-0.516,-0.322,-0.476
'0:00.529',-5.349,-5.278,0.071,5.314,-2.71,-2.603,-0.781,-1.496,-1.087,-0.559,-0.486,-1.734,-0.516,-0.322,-0.476
'0:00.530',-5.349,-5.277,0.071,5.313,-2.71,-2.603,-0.781,-1.496,-1.086,-0.558,-0.485,-1.734,-0.517,-0.319,-0.475
'0:00.531',-5.348,-5.276,0.072,5.311,-2.709,-2.602,-0.782,-1.497,-1.087,-0.558,-0.486,-1.736,-0.518,-0.317,-0.477
'0:00.532',-5.354,-5.279,0.073,5.316,-2.713,-2.603,-0.783,-1.498,-1.089,-0.559,-0.487,-1.738,-0.519,-0.316,-0.477
'0:00.533',-5.357,-5.282,0.074,5.32,-2.716,-2.604,-0.784,-1.5,-1.089,-0.559,-0.489,-1.738,-0.519,-0.317,-0.477
'0:00.534',-5.359,-5.287,0.072,5.322,-2.716,-2.607,-0.787,-1.502,-1.091,-0.559,-0.492,-1.74,-0.518,-0.317,-0.476
'0:00.535',-5.36,-5.288,0.072,5.324,-2.716,-2.608,-0.788,-1.501,-1.093,-0.558,-0.492,-1.742,-0.518,-0.316,-0.476
'0:00.536',-5.359,-5.286,0.073,5.322,-2.716,-2.607,-0.787,-1.502,-1.091,-0.558,-0.493,-1.741,-0.517,-0.311,-0.478
'0:00.537',-5.357,-5.286,0.071,5.322,-2.714,-2.607,-0.789,-1.504,-1.095,-0.56,-0.495,-1.743,-0.518,-0.313,-0.477
'0:00.538',-5.359,-5.289,0.07,5.324,-2.715,-2.609,-0.789,-1.504,-1.095,-0.56,-0.495,-1.744,-0.519,-0.318,-0.478
'0:00.539',-5.361,-5.289,0.071,5.324,-2.716,-2.608,-0.789,-1.503,-1.095,-0.559,-0.496,-1.744,-0.519,-0.316,-0.478
'0:00.540',-5.362,-5.29,0.072,5.326,-2.717,-2.609,-0.79,-1.503,-1.095,-0.558,-0.496,-1.745,-0.52,-0.314,-0.478
'0:00.541',-5.364,-5.29,0.074,5.326,-2.719,-2.608,-0.79,-1.502,-1.095,-0.559,-0.497,-1.744,-0.52,-0.313,-0.479
'0:00.542',-5.362,-5.288,0.074,5.325,-2.718,-2.607,-0.79,-1.502,-1.095,-0.559,-0.497,-1.746,-0.521,-0.312,-0.478
'0:00.543',-5.364,-5.29,0.074,5.327,-2.719,-2.608,-0.789,-1.502,-1.093,-0.558,-0.495,-1.746,-0.522,-0.312,-0.478
'0:00.544',-5.362,-5.287,0.075,5.324,-2.719,-2.606,-0.789,-1.501,-1.092,-0.559,-0.496,-1.744,-0.52,-0.312,-0.479
'0:00.545',-5.361,-5.286,0.075,5.324,-2.718,-2.606,-0.788,-1.499,-1.091,-0.557,-0.495,-1.744,-0.519,-0.311,-0.479
'0:00.546',-5.362,-5.284,0.077,5.322,-2.719,-2.603,-0.786,-1.496,-1.089,-0.556,-0.493,-1.742,-0.52,-0.309,-0.479
'0:00.547',-5.358,-5.281,0.077,5.319,-2.717,-2.602,-0.786,-1.495,-1.089,-0.555,-0.492,-1.743,-0.521,-0.309,-0.481
'0:00.548',-5.357,-5.277,0.08,5.317,-2.719,-2.599,-0.785,-1.494,-1.088,-0.554,-0.491,-1.742,-0.521,-0.309,-0.482
'0:00.549',-5.358,-5.274,0.084,5.316,-2.72,-2.596,-0.786,-1.496,-1.087,-0.553,-0.489,-1.743,-0.521,-0.307,-0.482
'0:00.550',-5.359,-5.276,0.084,5.317,-2.721,-2.596,-0.786,-1.495,-1.088,-0.554,-0.49,-1.744,-0.521,-0.306,-0.482
'0:00.551',-5.357,-5.274,0.084,5.315,-2.72,-2.595,-0.787,-1.494,-1.087,-0.554,-0.492,-1.744,-0.521,-0.308,-0.482
'0:00.552',-5.356,-5.274,0.083,5.315,-2.72,-2.595,-0.787,-1.494,-1.087,-0.554,-0.49,-1.744,-0.521,-0.312,-0.483
'0:00.553',-5.361,-5.276,0.085,5.319,-2.723,-2.595,-0.787,-1.494,-1.088,-0.554,-0.49,-1.744,-0.521,-0.311,-0.484
'0:00.554',-5.367,-5.277,0.089,5.322,-2.728,-2.595,-0.789,-1.496,-1.089,-0.557,-0.491,-1.746,-0.522,-0.306,-0.483
'0:00.555',-5.367,-5.279,0.088,5.323,-2.728,-2.595,-0.789,-1.496,-1.087,-0.557,-0.491,-1.746,-0.522,-0.303,-0.484
'0:00.556',-5.365,-5.278,0.087,5.322,-2.727,-2.595,-0.786,-1.494,-1.087,-0.556,-0.492,-1.747,-0.522,-0.302,-0.484
'0:00.557',-5.369,-5.281,0.088,5.325,-2.728,-2.596,-0.785,-1.493,-1.087,-0.557,-0.493,-1.75,-0.524,-0.301,-0.484
'0:00.558',-5.37,-5.283,0.087,5.327,-2.728,-2.598,-0.786,-1.492,-1.086,-0.557,-0.495,-1.75,-0.525,-0.304,-0.486
'0:00.559',-5.369,-5.283,0.086,5.326,-2.727,-2.599,-0.781,-1.488,-1.085,-0.557,-0.496,-1.751,-0.525,-0.306,-0.487
'0:00.560',-5.37,-5.287,0.084,5.328,-2.727,-2.602,-0.777,-1.481,-1.081,-0.558,-0.498,-1.754,-0.527,-0.307,-0.49
'0:00.561',-5.372,-5.29,0.083,5.33,-2.727,-2.603,-0.774,-1.475,-1.079,-0.56,-0.503,-1.758,-0.531,-0.31,-0.493
'0:00.562',-5.375,-5.295,0.08,5.335,-2.727,-2.607,-0.771,-1.47,-1.077,-0.562,-0.505,-1.761,-0.532,-0.315,-0.495
'0:00.563',-5.377,-5.301,0.076,5.338,-2.727,-2.612,-0.771,-1.466,-1.077,-0.564,-0.509,-1.766,-0.534,-0.318,-0.498
'0:00.564',-5.38,-5.304,0.075,5.341,-2.728,-2.614,-0.768,-1.459,-1.075,-0.566,-0.513,-1.771,-0.538,-0.32,-0.502
'0:00.565',-5.38,-5.31,0.07,5.345,-2.725,-2.62,-0.758,-1.444,-1.066,-0.567,-0.518,-1.777,-0.543,-0.327,-0.509
'0:00.566',-5.383,-5.316,0.067,5.349,-2.725,-2.625,-0.745,-1.424,-1.056,-0.568,-0.526,-1.786,-0.551,-0.331,-0.516
'0:00.567',-5.388,-5.326,0.061,5.356,-2.724,-2.632,-0.729,-1.403,-1.044,-0.568,-0.534,-1.796,-0.559,-0.337,-0.525
'0:00.568',-5.392,-5.337,0.056,5.364,-2.724,-2.64,-0.714,-1.377,-1.033,-0.571,-0.546,-1.809,-0.571,-0.348,-0.536
'0:00.569',-5.399,-5.343,0.057,5.371,-2.728,-2.643,-0.696,-1.351,-1.018,-0.571,-0.557,-1.823,-0.582,-0.352,-0.549
'0:00.570',-5.406,-5.346,0.06,5.375,-2.733,-2.643,-0.677,-1.321,-0.997,-0.564,-0.564,-1.835,-0.593,-0.352,-0.566
'0:00.571',-5.417,-5.346,0.071,5.381,-2.744,-2.637,-0.653,-1.284,-0.969,-0.559,-0.576,-1.853,-0.608,-0.348,-0.587
'0:00.572',-5.429,-5.347,0.083,5.388,-2.756,-2.632,-0.622,-1.23,-0.93,-0.548,-0.589,-1.874,-0.625,-0.343,-0.614
'0:00.573',-5.439,-5.343,0.095,5.391,-2.767,-2.624,-0.59,-1.173,-0.889,-0.533,-0.599,-1.894,-0.643,-0.338,-0.643
'0:00.574',-5.453,-5.34,0.113,5.396,-2.783,-2.613,-0.546,-1.103,-0.843,-0.526,-0.623,-1.924,-0.671,-0.332,-0.68
'0:00.575',-5.468,-5.335,0.134,5.402,-2.801,-2.6,-0.503,-1.026,-0.787,-0.512,-0.642,-1.954,-0.698,-0.33,-0.722
'0:00.576',-5.48,-5.327,0.152,5.404,-2.817,-2.587,-0.469,-0.962,-0.739,-0.498,-0.656,-1.979,-0.718,-0.318,-0.754
'0:00.577',-5.487,-5.328,0.159,5.407,-2.823,-2.584,-0.432,-0.882,-0.682,-0.485,-0.671,-2.005,-0.737,-0.311,-0.791
'0:00.578',-5.492,-5.321,0.17,5.406,-2.83,-2.575,-0.4,-0.808,-0.63,-0.472,-0.687,-2.026,-0.754,-0.307,-0.827
'0:00.579',-5.49,-5.3,0.191,5.395,-2.841,-2.554,-0.382,-0.753,-0.581,-0.452,-0.691,-2.036,-0.761,-0.291,-0.856
'0:00.580',-5.482,-5.267,0.214,5.375,-2.849,-2.526,-0.387,-0.726,-0.535,-0.415,-0.67,-2.026,-0.748,-0.268,-0.875
'0:00.581',-5.467,-5.226,0.241,5.346,-2.854,-2.492,-0.402,-0.718,-0.498,-0.375,-0.64,-2.006,-0.727,-0.24,-0.888
'0:00.582',-5.449,-5.192,0.257,5.32,-2.853,-2.467,-0.409,-0.694,-0.453,-0.33,-0.607,-1.986,-0.701,-0.22,-0.907
'0:00.583',-5.43,-5.163,0.267,5.296,-2.849,-2.447,-0.428,-0.701,-0.427,-0.293,-0.573,-1.96,-0.671,-0.201,-0.915
'0:00.584',-5.4,-5.13,0.27,5.264,-2.835,-2.429,-0.46,-0.722,-0.406,-0.251,-0.529,-1.923,-0.628,-0.182,-0.917
'0:00.585',-5.369,-5.097,0.271,5.232,-2.82,-2.413,-0.492,-0.749,-0.387,-0.203,-0.477,-1.881,-0.583,-0.165,-0.918
'0:00.586',-5.338,-5.056,0.281,5.197,-2.809,-2.388,-0.541,-0.816,-0.39,-0.161,-0.416,-1.827,-0.529,-0.137,-0.904
'0:00.587',-5.296,-5.013,0.283,5.154,-2.79,-2.365,-0.597,-0.876,-0.386,-0.107,-0.344,-1.764,-0.463,-0.113,-0.89
'0:00.588',-5.257,-4.989,0.268,5.123,-2.762,-2.361,-0.633,-0.91,-0.375,-0.058,-0.28,-1.708,-0.402,-0.103,-0.882
'0:00.589',-5.219,-4.97,0.248,5.094,-2.733,-2.361,-0.67,-0.962,-0.379,-0.013,-0.208,-1.644,-0.337,-0.098,-0.872
'0:00.590',-5.178,-4.944,0.233,5.061,-2.705,-2.356,-0.709,-1.022,-0.387,0.042,-0.127,-1.573,-0.266,-0.086,-0.862
'0:00.591',-5.131,-4.925,0.206,5.028,-2.669,-2.358,-0.756,-1.101,-0.406,0.089,-0.045,-1.497,-0.191,-0.084,-0.844
'0:00.592',-5.084,-4.901,0.182,4.992,-2.634,-2.359,-0.819,-1.244,-0.471,0.119,0.04,-1.413,-0.114,-0.081,-0.807
'0:00.593',-5.032,-4.869,0.163,4.95,-2.598,-2.353,-0.89,-1.4,-0.55,0.152,0.136,-1.312,-0.02,-0.066,-0.762
'0:00.594',-4.976,-4.847,0.128,4.912,-2.552,-2.359,-0.967,-1.564,-0.653,0.164,0.225,-1.212,0.074,-0.065,-0.705
'0:00.595',-4.927,-4.829,0.098,4.878,-2.513,-2.365,-1.047,-1.742,-0.766,0.18,0.321,-1.109,0.167,-0.062,-0.641
'0:00.596',-4.88,-4.803,0.077,4.841,-2.478,-2.363,-1.119,-1.884,-0.838,0.226,0.431,-1.002,0.268,-0.046,-0.595
'0:00.597',-4.839,-4.777,0.062,4.808,-2.45,-2.357,-1.187,-2.059,-0.964,0.227,0.519,-0.897,0.356,-0.032,-0.535
'0:00.598',-4.804,-4.744,0.061,4.774,-2.433,-2.341,-1.266,-2.264,-1.117,0.214,0.609,-0.785,0.447,-0.007,-0.459
'0:00.599',-4.774,-4.718,0.057,4.746,-2.416,-2.331,-1.337,-2.45,-1.26,0.202,0.692,-0.685,0.527,0.009,-0.389
'0:00.600',-4.731,-4.698,0.033,4.715,-2.381,-2.333,-1.419,-2.626,-1.401,0.196,0.789,-0.57,0.623,0.017,-0.317
'0:00.601',-4.691,-4.649,0.042,4.67,-2.366,-2.304,-1.507,-2.795,-1.522,0.214,0.904,-0.446,0.726,0.053,-0.248
'0:00.602',-4.665,-4.585,0.08,4.625,-2.372,-2.253,-1.587,-2.969,-1.635,0.24,1.016,-0.328,0.817,0.114,-0.188
'0:00.603',-4.626,-4.545,0.082,4.585,-2.353,-2.232,-1.685,-3.151,-1.74,0.275,1.146,-0.201,0.922,0.146,-0.119
'0:00.604',-4.593,-4.495,0.097,4.544,-2.345,-2.199,-1.782,-3.335,-1.858,0.293,1.255,-0.085,1.015,0.187,-0.046
'0:00.605',-4.551,-4.425,0.126,4.488,-2.339,-2.149,-1.893,-3.51,-1.962,0.328,1.384,0.048,1.125,0.244,0.028
'0:00.606',-4.506,-4.356,0.149,4.431,-2.328,-2.103,-2,-3.665,-2.045,0.39,1.535,0.19,1.246,0.297,0.092
'0:00.607',-4.481,-4.273,0.207,4.377,-2.345,-2.033,-2.081,-3.796,-2.106,0.468,1.68,0.312,1.349,0.376,0.131
'0:00.608',-4.457,-4.189,0.268,4.323,-2.362,-1.96,-2.16,-3.946,-2.188,0.535,1.829,0.44,1.452,0.453,0.174
'0:00.609',-4.446,-4.106,0.34,4.276,-2.393,-1.883,-2.225,-4.085,-2.274,0.585,1.956,0.555,1.54,0.532,0.218
'0:00.610',-4.455,-4.014,0.441,4.235,-2.448,-1.787,-2.262,-4.187,-2.332,0.642,2.068,0.647,1.607,0.624,0.241
'0:00.611',-4.476,-3.932,0.543,4.204,-2.51,-1.694,-2.289,-4.298,-2.413,0.666,2.148,0.717,1.651,0.715,0.272
'0:00.612',-4.493,-3.852,0.64,4.172,-2.567,-1.605,-2.336,-4.412,-2.493,0.689,2.228,0.787,1.696,0.8,0.314
'0:00.613',-4.514,-3.789,0.724,4.152,-2.619,-1.532,-2.382,-4.51,-2.561,0.713,2.304,0.85,1.736,0.869,0.35
'0:00.614',-4.546,-3.732,0.814,4.138,-2.68,-1.458,-2.423,-4.62,-2.65,0.712,2.349,0.887,1.753,0.937,0.393
'0:00.615',-4.569,-3.67,0.899,4.12,-2.735,-1.385,-2.462,-4.715,-2.716,0.73,2.404,0.93,1.78,1.002,0.428
'0:00.616',-4.585,-3.615,0.97,4.1,-2.777,-1.323,-2.522,-4.805,-2.783,0.736,2.454,0.972,1.807,1.058,0.473
'0:00.617',-4.62,-3.576,1.044,4.098,-2.832,-1.266,-2.576,-4.902,-2.882,0.691,2.458,0.986,1.804,1.108,0.529
'0:00.618',-4.662,-3.58,1.081,4.12,-2.872,-1.249,-2.604,-4.97,-2.972,0.62,2.427,0.972,1.775,1.119,0.58
'0:00.619',-4.678,-3.605,1.073,4.141,-2.876,-1.266,-2.628,-4.989,-3.006,0.593,2.417,0.962,1.76,1.101,0.614
'0:00.620',-4.686,-3.661,1.024,4.173,-2.854,-1.319,-2.638,-4.968,-3.003,0.585,2.417,0.952,1.752,1.052,0.636
'0:00.621',-4.699,-3.762,0.937,4.231,-2.818,-1.412,-2.62,-4.915,-2.991,0.556,2.378,0.91,1.715,0.97,0.657
'0:00.622',-4.717,-3.871,0.846,4.294,-2.781,-1.512,-2.587,-4.824,-2.947,0.532,2.316,0.846,1.66,0.881,0.661
'0:00.623',-4.749,-3.972,0.776,4.361,-2.763,-1.597,-2.54,-4.726,-2.905,0.48,2.217,0.757,1.579,0.801,0.661
'0:00.624',-4.79,-4.067,0.723,4.428,-2.757,-1.672,-2.478,-4.623,-2.875,0.393,2.08,0.647,1.476,0.732,0.657
'0:00.625',-4.828,-4.149,0.678,4.489,-2.753,-1.736,-2.418,-4.519,-2.843,0.286,1.925,0.527,1.363,0.674,0.652
'0:00.626',-4.87,-4.223,0.646,4.546,-2.758,-1.788,-2.345,-4.386,-2.783,0.202,1.756,0.384,1.232,0.621,0.626
'0:00.627',-4.92,-4.304,0.616,4.612,-2.768,-1.843,-2.264,-4.245,-2.712,0.123,1.567,0.213,1.082,0.564,0.592
'0:00.628',-4.982,-4.384,0.598,4.683,-2.79,-1.893,-2.169,-4.109,-2.656,0.01,1.329,0.003,0.892,0.514,0.558
'0:00.629',-5.042,-4.476,0.565,4.758,-2.803,-1.955,-2.059,-3.953,-2.592,-0.119,1.051,-0.234,0.686,0.45,0.517
'0:00.630',-5.098,-4.577,0.52,4.838,-2.809,-2.028,-1.946,-3.79,-2.527,-0.257,0.765,-0.473,0.478,0.374,0.475
'0:00.631',-5.155,-4.668,0.487,4.912,-2.821,-2.09,-1.843,-3.647,-2.487,-0.413,0.493,-0.688,0.285,0.307,0.441
'0:00.632',-5.205,-4.732,0.472,4.969,-2.839,-2.13,-1.757,-3.534,-2.467,-0.57,0.252,-0.869,0.12,0.262,0.418
'0:00.633',-5.25,-4.77,0.479,5.01,-2.865,-2.145,-1.674,-3.409,-2.423,-0.69,0.048,-1.024,-0.022,0.237,0.383
'0:00.634',-5.278,-4.796,0.481,5.037,-2.88,-2.157,-1.61,-3.281,-2.357,-0.765,-0.103,-1.14,-0.126,0.22,0.341
'0:00.635',-5.311,-4.827,0.484,5.069,-2.898,-2.171,-1.544,-3.155,-2.301,-0.852,-0.253,-1.258,-0.23,0.204,0.301
'0:00.636',-5.334,-4.854,0.479,5.093,-2.906,-2.188,-1.483,-3.025,-2.232,-0.91,-0.356,-1.343,-0.304,0.178,0.257
'0:00.637',-5.331,-4.878,0.452,5.104,-2.892,-2.213,-1.433,-2.882,-2.126,-0.887,-0.378,-1.384,-0.331,0.142,0.199
'0:00.638',-5.333,-4.913,0.419,5.123,-2.876,-2.247,-1.381,-2.74,-2.017,-0.859,-0.398,-1.426,-0.356,0.111,0.14
'0:00.639',-5.334,-4.949,0.384,5.141,-2.859,-2.283,-1.323,-2.594,-1.904,-0.822,-0.403,-1.46,-0.373,0.079,0.077
'0:00.640',-5.33,-4.989,0.342,5.16,-2.836,-2.323,-1.264,-2.452,-1.8,-0.788,-0.409,-1.498,-0.393,0.036,0.018
'0:00.641',-5.33,-5.03,0.298,5.179,-2.814,-2.365,-1.21,-2.332,-1.705,-0.75,-0.406,-1.524,-0.403,-0.009,-0.035
'0:00.642',-5.325,-5.054,0.271,5.189,-2.798,-2.392,-1.161,-2.221,-1.613,-0.696,-0.384,-1.533,-0.398,-0.038,-0.087
'0:00.643',-5.32,-5.061,0.258,5.191,-2.789,-2.401,-1.125,-2.137,-1.542,-0.652,-0.359,-1.53,-0.386,-0.048,-0.13
'0:00.644',-5.314,-5.066,0.248,5.189,-2.781,-2.409,-1.095,-2.064,-1.48,-0.611,-0.337,-1.524,-0.372,-0.057,-0.168
'0:00.645',-5.305,-5.069,0.236,5.186,-2.771,-2.416,-1.071,-2,-1.426,-0.577,-0.32,-1.52,-0.361,-0.068,-0.201
'0:00.646',-5.294,-5.066,0.227,5.18,-2.761,-2.42,-1.048,-1.933,-1.366,-0.534,-0.295,-1.51,-0.343,-0.074,-0.238
'0:00.647',-5.29,-5.059,0.23,5.174,-2.76,-2.414,-1.02,-1.867,-1.307,-0.495,-0.278,-1.505,-0.332,-0.071,-0.279
'0:00.648',-5.292,-5.053,0.239,5.172,-2.765,-2.406,-1.002,-1.821,-1.266,-0.471,-0.271,-1.51,-0.333,-0.067,-0.308
'0:00.649',-5.293,-5.049,0.244,5.171,-2.769,-2.402,-0.987,-1.782,-1.234,-0.455,-0.27,-1.518,-0.338,-0.065,-0.33
'0:00.650',-5.295,-5.051,0.244,5.173,-2.77,-2.403,-0.968,-1.744,-1.205,-0.444,-0.272,-1.526,-0.344,-0.067,-0.35
'0:00.651',-5.299,-5.062,0.236,5.181,-2.768,-2.413,-0.949,-1.709,-1.177,-0.435,-0.278,-1.538,-0.353,-0.077,-0.367
'0:00.652',-5.303,-5.075,0.227,5.189,-2.765,-2.424,-0.931,-1.677,-1.154,-0.428,-0.284,-1.549,-0.361,-0.092,-0.385
'0:00.653',-5.303,-5.085,0.217,5.194,-2.76,-2.433,-0.914,-1.645,-1.133,-0.424,-0.29,-1.56,-0.369,-0.105,-0.4
'0:00.654',-5.301,-5.097,0.204,5.199,-2.753,-2.446,-0.901,-1.623,-1.117,-0.426,-0.301,-1.571,-0.378,-0.121,-0.409
'0:00.655',-5.304,-5.109,0.194,5.206,-2.749,-2.458,-0.889,-1.6,-1.101,-0.425,-0.309,-1.583,-0.386,-0.135,-0.42
'0:00.656',-5.303,-5.117,0.184,5.21,-2.744,-2.466,-0.876,-1.577,-1.084,-0.423,-0.315,-1.592,-0.392,-0.147,-0.432
'0:00.657',-5.302,-5.127,0.175,5.214,-2.739,-2.475,-0.864,-1.556,-1.067,-0.422,-0.321,-1.598,-0.395,-0.159,-0.442
'0:00.658',-5.306,-5.136,0.169,5.221,-2.737,-2.483,-0.854,-1.535,-1.052,-0.42,-0.327,-1.607,-0.399,-0.17,-0.452
'0:00.659',-5.312,-5.148,0.164,5.23,-2.738,-2.492,-0.846,-1.518,-1.04,-0.419,-0.333,-1.615,-0.403,-0.176,-0.46
'0:00.660',-5.316,-5.156,0.16,5.236,-2.738,-2.498,-0.839,-1.502,-1.03,-0.419,-0.34,-1.623,-0.407,-0.179,-0.468
'0:00.661',-5.316,-5.158,0.157,5.237,-2.736,-2.501,-0.832,-1.488,-1.019,-0.419,-0.344,-1.629,-0.413,-0.183,-0.475
'0:00.662',-5.317,-5.163,0.154,5.24,-2.736,-2.505,-0.825,-1.474,-1.012,-0.418,-0.351,-1.635,-0.417,-0.186,-0.481
'0:00.663',-5.322,-5.171,0.149,5.247,-2.736,-2.51,-0.821,-1.462,-1.004,-0.42,-0.358,-1.641,-0.419,-0.19,-0.486
'0:00.664',-5.325,-5.177,0.147,5.251,-2.736,-2.514,-0.817,-1.452,-0.998,-0.422,-0.362,-1.645,-0.423,-0.194,-0.49
'0:00.665',-5.327,-5.181,0.146,5.254,-2.737,-2.518,-0.812,-1.443,-0.993,-0.424,-0.369,-1.651,-0.428,-0.196,-0.493
'0:00.666',-5.328,-5.184,0.144,5.255,-2.736,-2.519,-0.808,-1.433,-0.988,-0.425,-0.373,-1.654,-0.43,-0.199,-0.496
'0:00.667',-5.327,-5.184,0.142,5.255,-2.735,-2.521,-0.803,-1.424,-0.981,-0.427,-0.378,-1.657,-0.432,-0.202,-0.498
'0:00.668',-5.327,-5.188,0.139,5.256,-2.732,-2.524,-0.8,-1.415,-0.975,-0.428,-0.383,-1.661,-0.436,-0.207,-0.502
'0:00.669',-5.329,-5.191,0.138,5.26,-2.733,-2.526,-0.794,-1.405,-0.97,-0.426,-0.385,-1.665,-0.44,-0.21,-0.506
'0:00.670',-5.328,-5.194,0.134,5.261,-2.731,-2.53,-0.792,-1.397,-0.964,-0.427,-0.389,-1.668,-0.441,-0.212,-0.51
'0:00.671',-5.329,-5.197,0.131,5.263,-2.73,-2.533,-0.79,-1.388,-0.958,-0.427,-0.391,-1.671,-0.443,-0.216,-0.513
'0:00.672',-5.331,-5.2,0.131,5.266,-2.731,-2.534,-0.787,-1.381,-0.952,-0.427,-0.393,-1.674,-0.445,-0.216,-0.515
'0:00.673',-5.332,-5.204,0.127,5.268,-2.729,-2.538,-0.786,-1.375,-0.949,-0.429,-0.396,-1.678,-0.445,-0.218,-0.518
'0:00.674',-5.334,-5.208,0.126,5.271,-2.729,-2.541,-0.781,-1.366,-0.942,-0.428,-0.397,-1.679,-0.447,-0.225,-0.522
'0:00.675',-5.33,-5.205,0.125,5.267,-2.727,-2.539,-0.778,-1.358,-0.934,-0.428,-0.398,-1.68,-0.447,-0.226,-0.523
'0:00.676',-5.327,-5.205,0.122,5.266,-2.724,-2.541,-0.774,-1.351,-0.929,-0.426,-0.4,-1.683,-0.448,-0.225,-0.527
'0:00.677',-5.329,-5.207,0.12,5.268,-2.724,-2.543,-0.772,-1.343,-0.923,-0.425,-0.401,-1.684,-0.449,-0.227,-0.531
'0:00.678',-5.328,-5.208,0.12,5.268,-2.724,-2.543,-0.77,-1.337,-0.918,-0.424,-0.401,-1.687,-0.451,-0.23,-0.533
'0:00.679',-5.329,-5.21,0.118,5.269,-2.724,-2.546,-0.766,-1.333,-0.913,-0.422,-0.402,-1.687,-0.451,-0.232,-0.536
'0:00.680',-5.327,-5.211,0.116,5.269,-2.722,-2.547,-0.764,-1.327,-0.908,-0.421,-0.402,-1.689,-0.452,-0.232,-0.54
'0:00.681',-5.327,-5.211,0.116,5.269,-2.721,-2.547,-0.764,-1.319,-0.902,-0.42,-0.401,-1.69,-0.453,-0.232,-0.542
'0:00.682',-5.327,-5.213,0.113,5.27,-2.72,-2.55,-0.761,-1.313,-0.897,-0.417,-0.401,-1.69,-0.453,-0.233,-0.547
'0:00.683',-5.327,-5.216,0.11,5.271,-2.718,-2.554,-0.759,-1.309,-0.894,-0.418,-0.403,-1.692,-0.454,-0.234,-0.549
'0:00.684',-5.329,-5.219,0.108,5.274,-2.719,-2.555,-0.759,-1.304,-0.89,-0.416,-0.403,-1.694,-0.453,-0.236,-0.551
'0:00.685',-5.327,-5.221,0.105,5.274,-2.716,-2.558,-0.758,-1.302,-0.888,-0.412,-0.404,-1.695,-0.452,-0.24,-0.554
'0:00.686',-5.327,-5.224,0.102,5.275,-2.714,-2.562,-0.759,-1.298,-0.886,-0.411,-0.405,-1.696,-0.451,-0.244,-0.556
'0:00.687',-5.324,-5.223,0.101,5.273,-2.712,-2.561,-0.756,-1.295,-0.883,-0.411,-0.405,-1.696,-0.451,-0.244,-0.558
'0:00.688',-5.324,-5.223,0.101,5.274,-2.712,-2.562,-0.753,-1.29,-0.878,-0.41,-0.404,-1.696,-0.453,-0.244,-0.56
'0:00.689',-5.324,-5.224,0.1,5.274,-2.712,-2.562,-0.75,-1.284,-0.874,-0.409,-0.404,-1.696,-0.453,-0.242,-0.562
'0:00.690',-5.322,-5.221,0.101,5.271,-2.712,-2.56,-0.749,-1.281,-0.871,-0.408,-0.405,-1.696,-0.453,-0.243,-0.564
'0:00.691',-5.319,-5.222,0.097,5.27,-2.708,-2.562,-0.749,-1.276,-0.867,-0.405,-0.403,-1.696,-0.451,-0.247,-0.567
'0:00.692',-5.316,-5.221,0.095,5.268,-2.705,-2.562,-0.748,-1.272,-0.865,-0.404,-0.402,-1.695,-0.452,-0.248,-0.568
'0:00.693',-5.315,-5.218,0.097,5.266,-2.706,-2.561,-0.746,-1.266,-0.86,-0.402,-0.401,-1.693,-0.452,-0.248,-0.569
'0:00.694',-5.309,-5.215,0.094,5.261,-2.701,-2.56,-0.744,-1.262,-0.855,-0.399,-0.398,-1.69,-0.448,-0.25,-0.57
'0:00.695',-5.308,-5.215,0.092,5.261,-2.7,-2.561,-0.743,-1.258,-0.852,-0.397,-0.396,-1.689,-0.447,-0.251,-0.571
'0:00.696',-5.312,-5.218,0.094,5.265,-2.703,-2.562,-0.744,-1.254,-0.85,-0.396,-0.396,-1.69,-0.447,-0.25,-0.573
'0:00.697',-5.314,-5.22,0.093,5.266,-2.704,-2.563,-0.743,-1.252,-0.848,-0.396,-0.398,-1.69,-0.447,-0.247,-0.575
'0:00.698',-5.312,-5.22,0.092,5.266,-2.701,-2.564,-0.741,-1.249,-0.846,-0.395,-0.398,-1.691,-0.447,-0.248,-0.577
'0:00.699',-5.311,-5.22,0.091,5.266,-2.7,-2.564,-0.74,-1.244,-0.843,-0.392,-0.397,-1.69,-0.445,-0.252,-0.578
'0:00.700',-5.31,-5.22,0.09,5.264,-2.7,-2.564,-0.74,-1.241,-0.841,-0.39,-0.396,-1.69,-0.444,-0.251,-0.578
'0:00.701',-5.309,-5.22,0.089,5.264,-2.699,-2.565,-0.739,-1.239,-0.838,-0.388,-0.395,-1.691,-0.444,-0.255,-0.58
'0:00.702',-5.309,-5.221,0.087,5.265,-2.698,-2.567,-0.736,-1.236,-0.836,-0.387,-0.395,-1.691,-0.443,-0.258,-0.581
'0:00.703',-5.308,-5.221,0.086,5.263,-2.696,-2.567,-0.737,-1.236,-0.835,-0.386,-0.394,-1.691,-0.443,-0.256,-0.581
'0:00.704',-5.303,-5.218,0.086,5.261,-2.695,-2.567,-0.736,-1.23,-0.83,-0.382,-0.392,-1.688,-0.442,-0.255,-0.582
'0:00.705',-5.301,-5.216,0.086,5.258,-2.693,-2.566,-0.736,-1.228,-0.827,-0.38,-0.391,-1.688,-0.439,-0.252,-0.582
'0:00.706',-5.303,-5.216,0.086,5.26,-2.694,-2.565,-0.737,-1.226,-0.825,-0.379,-0.391,-1.688,-0.439,-0.251,-0.584
'0:00.707',-5.305,-5.218,0.087,5.261,-2.696,-2.565,-0.737,-1.224,-0.824,-0.378,-0.391,-1.688,-0.44,-0.251,-0.584
'0:00.708',-5.301,-5.216,0.085,5.259,-2.693,-2.566,-0.738,-1.222,-0.822,-0.378,-0.391,-1.69,-0.44,-0.253,-0.583
'0:00.709',-5.295,-5.212,0.083,5.253,-2.688,-2.564,-0.738,-1.217,-0.818,-0.374,-0.388,-1.686,-0.436,-0.253,-0.584
'0:00.710',-5.292,-5.208,0.084,5.25,-2.688,-2.562,-0.737,-1.213,-0.815,-0.371,-0.385,-1.684,-0.434,-0.253,-0.585
'0:00.711',-5.293,-5.21,0.083,5.251,-2.687,-2.563,-0.737,-1.212,-0.812,-0.37,-0.385,-1.685,-0.435,-0.252,-0.587
'0:00.712',-5.295,-5.213,0.082,5.253,-2.688,-2.566,-0.738,-1.211,-0.812,-0.369,-0.385,-1.688,-0.435,-0.251,-0.588
'0:00.713',-5.295,-5.213,0.083,5.254,-2.689,-2.566,-0.738,-1.208,-0.81,-0.368,-0.386,-1.688,-0.434,-0.252,-0.59
'0:00.714',-5.296,-5.214,0.083,5.255,-2.689,-2.566,-0.739,-1.206,-0.807,-0.367,-0.386,-1.687,-0.432,-0.25,-0.591
'0:00.715',-5.294,-5.213,0.081,5.253,-2.688,-2.566,-0.739,-1.203,-0.804,-0.365,-0.384,-1.685,-0.43,-0.249,-0.59
'0:00.716',-5.293,-5.211,0.082,5.252,-2.687,-2.564,-0.736,-1.199,-0.799,-0.362,-0.382,-1.683,-0.43,-0.246,-0.592
'0:00.717',-5.295,-5.213,0.083,5.253,-2.688,-2.565,-0.735,-1.197,-0.798,-0.362,-0.382,-1.684,-0.429,-0.247,-0.593
'0:00.718',-5.295,-5.211,0.084,5.253,-2.688,-2.564,-0.735,-1.194,-0.795,-0.361,-0.38,-1.684,-0.428,-0.247,-0.595
'0:00.719',-5.291,-5.21,0.082,5.25,-2.687,-2.564,-0.734,-1.19,-0.791,-0.357,-0.378,-1.681,-0.427,-0.249,-0.595
'0:00.720',-5.29,-5.21,0.08,5.25,-2.685,-2.565,-0.733,-1.188,-0.787,-0.355,-0.376,-1.679,-0.426,-0.252,-0.596
'0:00.721',-5.292,-5.21,0.081,5.25,-2.686,-2.565,-0.734,-1.183,-0.784,-0.353,-0.374,-1.679,-0.426,-0.248,-0.597
'0:00.722',-5.288,-5.208,0.08,5.248,-2.684,-2.564,-0.732,-1.179,-0.78,-0.35,-0.373,-1.677,-0.424,-0.25,-0.598
'0:00.723',-5.287,-5.208,0.079,5.247,-2.683,-2.564,-0.731,-1.175,-0.776,-0.348,-0.37,-1.676,-0.421,-0.25,-0.599
'0:00.724',-5.283,-5.207,0.076,5.245,-2.679,-2.566,-0.732,-1.173,-0.775,-0.346,-0.37,-1.676,-0.42,-0.25,-0.599
'0:00.725',-5.282,-5.205,0.077,5.242,-2.679,-2.563,-0.733,-1.17,-0.772,-0.344,-0.368,-1.675,-0.42,-0.25,-0.6
'0:00.726',-5.281,-5.202,0.079,5.242,-2.679,-2.562,-0.732,-1.167,-0.769,-0.343,-0.367,-1.675,-0.42,-0.246,-0.6
'0:00.727',-5.279,-5.2,0.078,5.239,-2.678,-2.561,-0.73,-1.161,-0.764,-0.338,-0.365,-1.673,-0.419,-0.246,-0.603
'0:00.728',-5.28,-5.2,0.08,5.24,-2.679,-2.56,-0.728,-1.157,-0.759,-0.333,-0.362,-1.67,-0.417,-0.244,-0.604
'0:00.729',-5.279,-5.2,0.08,5.239,-2.679,-2.561,-0.729,-1.155,-0.757,-0.333,-0.36,-1.67,-0.416,-0.242,-0.604
'0:00.730',-5.279,-5.198,0.08,5.238,-2.679,-2.559,-0.729,-1.151,-0.753,-0.329,-0.358,-1.669,-0.415,-0.245,-0.605
'0:00.731',-5.275,-5.195,0.08,5.235,-2.678,-2.558,-0.728,-1.147,-0.75,-0.326,-0.358,-1.669,-0.415,-0.247,-0.605
'0:00.732',-5.272,-5.192,0.08,5.232,-2.676,-2.556,-0.725,-1.143,-0.746,-0.323,-0.356,-1.669,-0.415,-0.248,-0.607
'0:00.733',-5.272,-5.191,0.081,5.231,-2.676,-2.555,-0.725,-1.138,-0.741,-0.32,-0.353,-1.667,-0.414,-0.247,-0.608
'0:00.734',-5.268,-5.189,0.08,5.229,-2.674,-2.554,-0.724,-1.135,-0.737,-0.318,-0.351,-1.665,-0.411,-0.245,-0.609
'0:00.735',-5.27,-5.189,0.081,5.229,-2.675,-2.554,-0.721,-1.131,-0.734,-0.315,-0.351,-1.665,-0.412,-0.238,-0.61
'0:00.736',-5.27,-5.188,0.082,5.229,-2.675,-2.553,-0.72,-1.127,-0.729,-0.312,-0.348,-1.665,-0.412,-0.238,-0.613
'0:00.737',-5.263,-5.184,0.08,5.223,-2.671,-2.553,-0.719,-1.122,-0.723,-0.308,-0.344,-1.661,-0.408,-0.244,-0.613
'0:00.738',-5.261,-5.183,0.078,5.221,-2.669,-2.553,-0.717,-1.117,-0.719,-0.306,-0.344,-1.658,-0.406,-0.244,-0.613
'0:00.739',-5.26,-5.182,0.078,5.221,-2.668,-2.552,-0.714,-1.112,-0.713,-0.302,-0.34,-1.656,-0.406,-0.244,-0.616
'0:00.740',-5.259,-5.181,0.079,5.22,-2.668,-2.551,-0.715,-1.109,-0.709,-0.301,-0.338,-1.657,-0.405,-0.243,-0.617
'0:00.741',-5.256,-5.18,0.076,5.218,-2.667,-2.551,-0.715,-1.105,-0.706,-0.299,-0.337,-1.655,-0.403,-0.246,-0.617
'0:00.742',-5.258,-5.179,0.079,5.218,-2.668,-2.55,-0.712,-1.101,-0.702,-0.294,-0.335,-1.654,-0.402,-0.245,-0.619
'0:00.743',-5.261,-5.18,0.081,5.221,-2.671,-2.55,-0.713,-1.097,-0.698,-0.29,-0.333,-1.653,-0.402,-0.242,-0.621
'0:00.744',-5.259,-5.179,0.08,5.219,-2.669,-2.55,-0.713,-1.092,-0.692,-0.285,-0.33,-1.649,-0.398,-0.242,-0.622
'0:00.745',-5.253,-5.175,0.079,5.213,-2.666,-2.548,-0.712,-1.087,-0.687,-0.282,-0.327,-1.647,-0.396,-0.242,-0.624
'0:00.746',-5.25,-5.173,0.077,5.211,-2.663,-2.548,-0.713,-1.083,-0.684,-0.281,-0.326,-1.647,-0.395,-0.243,-0.624
'0:00.747',-5.25,-5.172,0.079,5.211,-2.664,-2.547,-0.711,-1.08,-0.68,-0.278,-0.324,-1.647,-0.394,-0.241,-0.626
'0:00.748',-5.248,-5.171,0.077,5.21,-2.663,-2.547,-0.711,-1.075,-0.674,-0.274,-0.321,-1.643,-0.393,-0.242,-0.627
'0:00.749',-5.246,-5.172,0.074,5.209,-2.66,-2.549,-0.71,-1.071,-0.67,-0.27,-0.318,-1.641,-0.39,-0.24,-0.628
'0:00.750',-5.247,-5.172,0.076,5.21,-2.662,-2.548,-0.709,-1.067,-0.665,-0.269,-0.318,-1.641,-0.389,-0.237,-0.629
'0:00.751',-5.249,-5.173,0.076,5.21,-2.662,-2.549,-0.71,-1.063,-0.662,-0.267,-0.316,-1.641,-0.388,-0.236,-0.63
'0:00.752',-5.249,-5.173,0.075,5.211,-2.662,-2.549,-0.711,-1.06,-0.658,-0.263,-0.314,-1.639,-0.387,-0.235,-0.631
'0:00.753',-5.247,-5.172,0.075,5.21,-2.661,-2.549,-0.71,-1.055,-0.653,-0.26,-0.311,-1.637,-0.385,-0.237,-0.634
'0:00.754',-5.245,-5.17,0.075,5.207,-2.66,-2.547,-0.709,-1.05,-0.649,-0.255,-0.307,-1.635,-0.383,-0.239,-0.635
'0:00.755',-5.245,-5.17,0.074,5.207,-2.659,-2.548,-0.71,-1.046,-0.643,-0.252,-0.303,-1.634,-0.381,-0.235,-0.637
'0:00.756',-5.244,-5.17,0.074,5.207,-2.659,-2.547,-0.71,-1.044,-0.64,-0.249,-0.302,-1.633,-0.379,-0.234,-0.639
'0:00.757',-5.24,-5.167,0.073,5.204,-2.656,-2.547,-0.71,-1.038,-0.635,-0.245,-0.3,-1.631,-0.377,-0.237,-0.641
'0:00.758',-5.237,-5.165,0.071,5.2,-2.654,-2.547,-0.71,-1.032,-0.629,-0.24,-0.296,-1.629,-0.374,-0.233,-0.642
'0:00.759',-5.237,-5.167,0.071,5.202,-2.654,-2.547,-0.71,-1.028,-0.624,-0.237,-0.293,-1.629,-0.372,-0.235,-0.643
'0:00.760',-5.237,-5.168,0.07,5.202,-2.653,-2.549,-0.71,-1.024,-0.621,-0.234,-0.292,-1.629,-0.372,-0.236,-0.645
'0:00.761',-5.234,-5.166,0.068,5.199,-2.651,-2.549,-0.71,-1.02,-0.617,-0.231,-0.291,-1.627,-0.37,-0.234,-0.646
'0:00.762',-5.233,-5.166,0.067,5.199,-2.65,-2.55,-0.709,-1.014,-0.611,-0.226,-0.288,-1.625,-0.368,-0.234,-0.649
'0:00.763',-5.232,-5.165,0.068,5.199,-2.65,-2.549,-0.711,-1.011,-0.604,-0.224,-0.285,-1.622,-0.366,-0.232,-0.65
'0:00.764',-5.228,-5.16,0.068,5.194,-2.647,-2.546,-0.711,-1.004,-0.597,-0.217,-0.283,-1.619,-0.362,-0.228,-0.651
'0:00.765',-5.224,-5.156,0.068,5.19,-2.646,-2.544,-0.709,-0.998,-0.592,-0.212,-0.28,-1.617,-0.36,-0.23,-0.653
'0:00.766',-5.221,-5.154,0.068,5.188,-2.644,-2.543,-0.708,-0.991,-0.584,-0.207,-0.276,-1.614,-0.358,-0.234,-0.654
'0:00.767',-5.218,-5.152,0.067,5.185,-2.643,-2.542,-0.707,-0.986,-0.579,-0.203,-0.273,-1.611,-0.356,-0.23,-0.657
'0:00.768',-5.218,-5.152,0.066,5.184,-2.642,-2.542,-0.707,-0.981,-0.574,-0.201,-0.272,-1.613,-0.355,-0.234,-0.659
'0:00.769',-5.216,-5.151,0.065,5.183,-2.64,-2.543,-0.705,-0.975,-0.567,-0.197,-0.27,-1.612,-0.355,-0.231,-0.661
'0:00.770',-5.217,-5.15,0.067,5.184,-2.642,-2.542,-0.707,-0.97,-0.562,-0.191,-0.266,-1.61,-0.352,-0.228,-0.664
'0:00.771',-5.218,-5.149,0.069,5.183,-2.643,-2.541,-0.706,-0.964,-0.555,-0.185,-0.263,-1.608,-0.35,-0.228,-0.665
'0:00.772',-5.213,-5.146,0.068,5.179,-2.64,-2.539,-0.707,-0.96,-0.55,-0.18,-0.261,-1.605,-0.348,-0.224,-0.667
'0:00.773',-5.208,-5.143,0.065,5.175,-2.636,-2.539,-0.707,-0.951,-0.542,-0.174,-0.255,-1.602,-0.345,-0.22,-0.67
'0:00.774',-5.21,-5.144,0.067,5.177,-2.639,-2.538,-0.706,-0.945,-0.534,-0.17,-0.252,-1.601,-0.344,-0.223,-0.672
'0:00.775',-5.211,-5.141,0.07,5.176,-2.64,-2.536,-0.704,-0.939,-0.527,-0.166,-0.248,-1.598,-0.342,-0.226,-0.675
'0:00.776',-5.207,-5.138,0.069,5.171,-2.637,-2.534,-0.703,-0.93,-0.518,-0.159,-0.245,-1.594,-0.338,-0.222,-0.677
'0:00.777',-5.202,-5.135,0.067,5.168,-2.634,-2.534,-0.704,-0.926,-0.512,-0.154,-0.242,-1.595,-0.337,-0.224,-0.678
'0:00.778',-5.199,-5.131,0.067,5.165,-2.632,-2.532,-0.704,-0.919,-0.505,-0.149,-0.24,-1.593,-0.334,-0.224,-0.681
'0:00.779',-5.197,-5.13,0.067,5.163,-2.632,-2.531,-0.703,-0.912,-0.498,-0.143,-0.237,-1.591,-0.33,-0.22,-0.684
'0:00.780',-5.196,-5.128,0.068,5.162,-2.631,-2.53,-0.701,-0.904,-0.49,-0.138,-0.233,-1.589,-0.327,-0.219,-0.686
'0:00.781',-5.197,-5.128,0.07,5.162,-2.633,-2.529,-0.701,-0.898,-0.482,-0.133,-0.23,-1.587,-0.326,-0.216,-0.689
'0:00.782',-5.192,-5.123,0.069,5.157,-2.631,-2.527,-0.699,-0.888,-0.473,-0.126,-0.225,-1.583,-0.322,-0.212,-0.691
'0:00.783',-5.183,-5.117,0.066,5.15,-2.624,-2.526,-0.698,-0.88,-0.464,-0.119,-0.218,-1.58,-0.318,-0.212,-0.694
'0:00.784',-5.181,-5.115,0.066,5.148,-2.623,-2.525,-0.698,-0.874,-0.457,-0.114,-0.215,-1.579,-0.315,-0.213,-0.696
'0:00.785',-5.178,-5.112,0.066,5.145,-2.622,-2.523,-0.698,-0.865,-0.448,-0.107,-0.211,-1.575,-0.309,-0.215,-0.698
'0:00.786',-5.175,-5.112,0.064,5.143,-2.619,-2.524,-0.698,-0.858,-0.441,-0.101,-0.206,-1.573,-0.306,-0.214,-0.7
'0:00.787',-5.174,-5.11,0.064,5.142,-2.619,-2.523,-0.698,-0.85,-0.432,-0.095,-0.203,-1.571,-0.303,-0.213,-0.703
'0:00.788',-5.176,-5.112,0.065,5.144,-2.62,-2.523,-0.697,-0.842,-0.422,-0.088,-0.2,-1.569,-0.3,-0.212,-0.707
'0:00.789',-5.181,-5.115,0.067,5.148,-2.623,-2.524,-0.697,-0.835,-0.415,-0.083,-0.196,-1.569,-0.297,-0.208,-0.711
'0:00.790',-5.184,-5.115,0.069,5.149,-2.627,-2.523,-0.697,-0.828,-0.407,-0.076,-0.193,-1.567,-0.294,-0.207,-0.714
'0:00.791',-5.186,-5.115,0.07,5.149,-2.627,-2.522,-0.697,-0.818,-0.398,-0.068,-0.188,-1.563,-0.289,-0.203,-0.717
'0:00.792',-5.186,-5.114,0.073,5.149,-2.63,-2.521,-0.699,-0.811,-0.389,-0.061,-0.181,-1.559,-0.285,-0.199,-0.719
'0:00.793',-5.189,-5.115,0.073,5.152,-2.631,-2.521,-0.699,-0.805,-0.381,-0.057,-0.18,-1.56,-0.283,-0.198,-0.72
'0:00.794',-5.186,-5.113,0.072,5.149,-2.628,-2.521,-0.7,-0.796,-0.372,-0.051,-0.177,-1.558,-0.281,-0.197,-0.723
'0:00.795',-5.176,-5.104,0.072,5.14,-2.624,-2.515,-0.7,-0.787,-0.362,-0.042,-0.17,-1.552,-0.276,-0.196,-0.726
'0:00.796',-5.169,-5.096,0.072,5.133,-2.62,-2.513,-0.7,-0.779,-0.353,-0.034,-0.164,-1.549,-0.27,-0.197,-0.729
'0:00.797',-5.165,-5.095,0.07,5.13,-2.617,-2.513,-0.699,-0.77,-0.344,-0.025,-0.159,-1.546,-0.266,-0.197,-0.731
'0:00.798',-5.16,-5.091,0.07,5.125,-2.615,-2.51,-0.699,-0.761,-0.335,-0.017,-0.153,-1.542,-0.261,-0.199,-0.733
'0:00.799',-5.159,-5.088,0.071,5.123,-2.615,-2.509,-0.697,-0.75,-0.325,-0.007,-0.145,-1.538,-0.256,-0.199,-0.737
'0:00.800',-5.162,-5.087,0.074,5.123,-2.618,-2.506,-0.697,-0.74,-0.315,0.004,-0.14,-1.534,-0.252,-0.193,-0.741
'0:00.801',-5.161,-5.085,0.075,5.122,-2.618,-2.505,-0.699,-0.734,-0.306,0.011,-0.135,-1.532,-0.248,-0.189,-0.744
'0:00.802',-5.161,-5.085,0.075,5.122,-2.618,-2.505,-0.699,-0.727,-0.297,0.017,-0.13,-1.53,-0.244,-0.187,-0.747
'0:00.803',-5.16,-5.083,0.076,5.122,-2.618,-2.503,-0.697,-0.719,-0.288,0.026,-0.124,-1.53,-0.241,-0.186,-0.75
'0:00.804',-5.157,-5.082,0.074,5.12,-2.615,-2.504,-0.697,-0.711,-0.278,0.034,-0.118,-1.526,-0.238,-0.186,-0.752
'0:00.805',-5.155,-5.08,0.075,5.117,-2.615,-2.502,-0.697,-0.701,-0.268,0.044,-0.111,-1.52,-0.233,-0.181,-0.755
'0:00.806',-5.154,-5.077,0.076,5.115,-2.615,-2.501,-0.697,-0.691,-0.257,0.053,-0.105,-1.518,-0.229,-0.177,-0.76
'0:00.807',-5.152,-5.075,0.077,5.114,-2.615,-2.499,-0.696,-0.683,-0.246,0.06,-0.1,-1.515,-0.226,-0.179,-0.763
'0:00.808',-5.148,-5.072,0.076,5.109,-2.611,-2.498,-0.696,-0.674,-0.237,0.069,-0.092,-1.51,-0.221,-0.179,-0.765
'0:00.809',-5.141,-5.067,0.073,5.104,-2.607,-2.497,-0.695,-0.665,-0.225,0.08,-0.085,-1.505,-0.217,-0.179,-0.77
'0:00.810',-5.138,-5.064,0.073,5.101,-2.606,-2.495,-0.695,-0.657,-0.215,0.087,-0.079,-1.5,-0.212,-0.178,-0.772
'0:00.811',-5.139,-5.062,0.077,5.101,-2.608,-2.493,-0.694,-0.647,-0.205,0.097,-0.072,-1.494,-0.207,-0.173,-0.775
'0:00.812',-5.138,-5.059,0.078,5.098,-2.607,-2.49,-0.693,-0.639,-0.195,0.106,-0.064,-1.49,-0.203,-0.168,-0.779
'0:00.813',-5.133,-5.056,0.077,5.094,-2.605,-2.489,-0.693,-0.631,-0.186,0.115,-0.057,-1.485,-0.197,-0.166,-0.783
'0:00.814',-5.13,-5.053,0.077,5.092,-2.603,-2.488,-0.694,-0.623,-0.175,0.124,-0.05,-1.481,-0.192,-0.166,-0.785
'0:00.815',-5.128,-5.053,0.076,5.09,-2.602,-2.489,-0.693,-0.616,-0.166,0.135,-0.043,-1.476,-0.185,-0.164,-0.788
'0:00.816',-5.128,-5.052,0.076,5.09,-2.602,-2.488,-0.693,-0.609,-0.159,0.143,-0.036,-1.472,-0.181,-0.164,-0.792
'0:00.817',-5.127,-5.051,0.075,5.089,-2.6,-2.488,-0.695,-0.603,-0.15,0.152,-0.029,-1.469,-0.177,-0.162,-0.795
'0:00.818',-5.122,-5.045,0.077,5.083,-2.599,-2.484,-0.697,-0.597,-0.141,0.161,-0.022,-1.464,-0.171,-0.155,-0.797
'0:00.819',-5.118,-5.042,0.076,5.08,-2.596,-2.483,-0.698,-0.588,-0.131,0.17,-0.014,-1.459,-0.166,-0.155,-0.8
'0:00.820',-5.114,-5.037,0.077,5.075,-2.595,-2.48,-0.698,-0.58,-0.12,0.18,-0.005,-1.452,-0.161,-0.156,-0.802
'0:00.821',-5.109,-5.029,0.079,5.069,-2.594,-2.475,-0.701,-0.574,-0.112,0.188,0.002,-1.448,-0.156,-0.153,-0.804
'0:00.822',-5.106,-5.027,0.08,5.066,-2.592,-2.474,-0.701,-0.566,-0.102,0.199,0.011,-1.441,-0.15,-0.152,-0.806
'0:00.823',-5.106,-5.024,0.083,5.065,-2.594,-2.471,-0.699,-0.559,-0.095,0.208,0.019,-1.437,-0.145,-0.145,-0.809
'0:00.824',-5.107,-5.024,0.084,5.065,-2.595,-2.47,-0.7,-0.554,-0.086,0.216,0.026,-1.433,-0.141,-0.141,-0.812
'0:00.825',-5.101,-5.018,0.083,5.059,-2.591,-2.467,-0.701,-0.547,-0.078,0.226,0.034,-1.427,-0.134,-0.14,-0.815
'0:00.826',-5.092,-5.008,0.085,5.05,-2.588,-2.462,-0.703,-0.541,-0.069,0.236,0.043,-1.42,-0.127,-0.138,-0.817
'0:00.827',-5.09,-5.003,0.086,5.046,-2.588,-2.459,-0.705,-0.536,-0.06,0.245,0.051,-1.414,-0.121,-0.138,-0.818
'0:00.828',-5.088,-5.002,0.086,5.045,-2.587,-2.458,-0.706,-0.531,-0.055,0.253,0.058,-1.409,-0.116,-0.134,-0.821
'0:00.829',-5.083,-4.997,0.087,5.04,-2.585,-2.454,-0.709,-0.529,-0.049,0.26,0.065,-1.403,-0.11,-0.133,-0.823
'0:00.830',-5.082,-4.995,0.087,5.038,-2.584,-2.454,-0.711,-0.525,-0.043,0.268,0.074,-1.397,-0.103,-0.129,-0.826
'0:00.831',-5.077,-4.989,0.087,5.032,-2.582,-2.45,-0.709,-0.519,-0.035,0.278,0.084,-1.392,-0.098,-0.124,-0.828
'0:00.832',-5.069,-4.982,0.087,5.026,-2.578,-2.447,-0.709,-0.514,-0.029,0.286,0.09,-1.387,-0.092,-0.125,-0.83
'0:00.833',-5.069,-4.98,0.089,5.024,-2.579,-2.446,-0.711,-0.51,-0.024,0.294,0.099,-1.38,-0.086,-0.122,-0.833
'0:00.834',-5.062,-4.973,0.089,5.017,-2.575,-2.442,-0.715,-0.507,-0.018,0.303,0.108,-1.374,-0.08,-0.118,-0.833
'0:00.835',-5.056,-4.966,0.09,5.011,-2.573,-2.438,-0.718,-0.505,-0.011,0.311,0.117,-1.368,-0.073,-0.112,-0.835
'0:00.836',-5.052,-4.96,0.091,5.006,-2.571,-2.435,-0.719,-0.502,-0.005,0.32,0.126,-1.361,-0.066,-0.108,-0.836
'0:00.837',-5.049,-4.957,0.092,5.003,-2.571,-2.432,-0.72,-0.497,0,0.33,0.135,-1.355,-0.061,-0.108,-0.839
'0:00.838',-5.048,-4.953,0.095,5,-2.571,-2.429,-0.724,-0.496,0.004,0.337,0.142,-1.349,-0.055,-0.105,-0.839
'0:00.839',-5.042,-4.947,0.093,4.994,-2.567,-2.427,-0.726,-0.495,0.011,0.345,0.152,-1.341,-0.046,-0.107,-0.84
'0:00.840',-5.04,-4.944,0.095,4.992,-2.567,-2.425,-0.726,-0.493,0.015,0.351,0.159,-1.335,-0.041,-0.106,-0.841
'0:00.841',-5.036,-4.938,0.098,4.987,-2.567,-2.42,-0.725,-0.49,0.019,0.357,0.167,-1.331,-0.038,-0.099,-0.842
'0:00.842',-5.029,-4.93,0.099,4.979,-2.564,-2.416,-0.728,-0.489,0.025,0.366,0.176,-1.325,-0.032,-0.095,-0.844
'0:00.843',-5.027,-4.925,0.101,4.976,-2.564,-2.412,-0.729,-0.487,0.029,0.373,0.183,-1.317,-0.026,-0.089,-0.844
'0:00.844',-5.027,-4.924,0.102,4.975,-2.564,-2.41,-0.73,-0.487,0.032,0.379,0.19,-1.312,-0.021,-0.088,-0.845
'0:00.845',-5.024,-4.922,0.102,4.973,-2.563,-2.41,-0.735,-0.489,0.033,0.384,0.195,-1.308,-0.015,-0.089,-0.844
'0:00.846',-5.019,-4.915,0.104,4.967,-2.562,-2.405,-0.737,-0.489,0.036,0.39,0.203,-1.304,-0.01,-0.088,-0.845
'0:00.847',-5.019,-4.912,0.106,4.965,-2.562,-2.402,-0.738,-0.49,0.039,0.397,0.208,-1.298,-0.005,-0.087,-0.846
'0:00.848',-5.016,-4.908,0.107,4.962,-2.561,-2.401,-0.741,-0.491,0.041,0.402,0.214,-1.292,0,-0.083,-0.845
'0:00.849',-5.011,-4.901,0.11,4.955,-2.561,-2.396,-0.742,-0.49,0.044,0.408,0.221,-1.286,0.004,-0.079,-0.847
'0:00.850',-5.012,-4.899,0.113,4.955,-2.562,-2.393,-0.743,-0.491,0.045,0.414,0.227,-1.282,0.009,-0.076,-0.846
'0:00.851',-5.013,-4.897,0.115,4.955,-2.564,-2.391,-0.744,-0.493,0.044,0.418,0.233,-1.277,0.014,-0.07,-0.846
'0:00.852',-5.008,-4.891,0.117,4.949,-2.562,-2.386,-0.744,-0.494,0.046,0.424,0.239,-1.271,0.019,-0.066,-0.846
'0:00.853',-5.005,-4.887,0.117,4.946,-2.561,-2.385,-0.746,-0.498,0.048,0.428,0.245,-1.268,0.023,-0.067,-0.845
'0:00.854',-4.999,-4.881,0.117,4.94,-2.558,-2.382,-0.748,-0.499,0.048,0.433,0.249,-1.262,0.028,-0.065,-0.845
'0:00.855',-4.994,-4.877,0.117,4.936,-2.555,-2.38,-0.749,-0.501,0.046,0.435,0.257,-1.256,0.033,-0.062,-0.844
'0:00.856',-4.995,-4.877,0.118,4.936,-2.557,-2.38,-0.751,-0.506,0.044,0.436,0.26,-1.255,0.033,-0.064,-0.843
'0:00.857',-4.995,-4.872,0.123,4.934,-2.559,-2.374,-0.754,-0.51,0.044,0.439,0.266,-1.25,0.037,-0.059,-0.842
'0:00.858',-4.994,-4.869,0.124,4.931,-2.559,-2.372,-0.758,-0.514,0.042,0.441,0.271,-1.246,0.041,-0.054,-0.841
'0:00.859',-4.994,-4.868,0.125,4.931,-2.559,-2.372,-0.759,-0.52,0.04,0.444,0.275,-1.242,0.045,-0.053,-0.841
'0:00.860',-4.995,-4.868,0.126,4.931,-2.561,-2.371,-0.763,-0.526,0.037,0.446,0.278,-1.238,0.049,-0.049,-0.839
'0:00.861',-4.997,-4.867,0.13,4.931,-2.563,-2.369,-0.764,-0.532,0.033,0.447,0.28,-1.236,0.05,-0.045,-0.838
'0:00.862',-4.999,-4.867,0.131,4.933,-2.565,-2.368,-0.763,-0.536,0.03,0.449,0.286,-1.232,0.052,-0.046,-0.839
'0:00.863',-4.997,-4.865,0.131,4.931,-2.564,-2.367,-0.767,-0.543,0.025,0.449,0.287,-1.23,0.053,-0.047,-0.836
'0:00.864',-4.997,-4.864,0.133,4.93,-2.565,-2.365,-0.767,-0.551,0.019,0.448,0.289,-1.228,0.056,-0.043,-0.835
'0:00.865',-4.997,-4.862,0.134,4.929,-2.566,-2.364,-0.77,-0.559,0.013,0.447,0.292,-1.224,0.058,-0.04,-0.834
'0:00.866',-4.995,-4.857,0.137,4.926,-2.566,-2.36,-0.773,-0.567,0.007,0.447,0.294,-1.22,0.061,-0.037,-0.832
'0:00.867',-4.99,-4.854,0.136,4.922,-2.563,-2.359,-0.776,-0.576,0.001,0.446,0.296,-1.218,0.065,-0.039,-0.828
'0:00.868',-4.99,-4.853,0.138,4.921,-2.563,-2.357,-0.777,-0.584,-0.005,0.444,0.298,-1.216,0.066,-0.04,-0.825
'0:00.869',-4.99,-4.851,0.139,4.92,-2.564,-2.356,-0.779,-0.593,-0.013,0.441,0.302,-1.214,0.066,-0.037,-0.824
'0:00.870',-4.992,-4.853,0.139,4.922,-2.565,-2.357,-0.782,-0.605,-0.021,0.436,0.3,-1.215,0.065,-0.038,-0.821
'0:00.871',-5.001,-4.856,0.143,4.928,-2.572,-2.356,-0.784,-0.615,-0.032,0.433,0.299,-1.213,0.066,-0.038,-0.817
'0:00.872',-5.001,-4.854,0.146,4.927,-2.574,-2.353,-0.787,-0.625,-0.041,0.431,0.301,-1.21,0.068,-0.035,-0.814
'0:00.873',-5,-4.851,0.148,4.925,-2.574,-2.35,-0.79,-0.636,-0.05,0.426,0.302,-1.21,0.067,-0.028,-0.812
'0:00.874',-5.002,-4.851,0.151,4.926,-2.576,-2.349,-0.792,-0.648,-0.059,0.42,0.301,-1.209,0.067,-0.023,-0.808
'0:00.875',-5.008,-4.852,0.155,4.93,-2.582,-2.348,-0.795,-0.662,-0.07,0.414,0.298,-1.208,0.066,-0.021,-0.805
'0:00.876',-5.011,-4.856,0.154,4.934,-2.583,-2.351,-0.8,-0.677,-0.085,0.405,0.295,-1.21,0.065,-0.029,-0.801
'0:00.877',-5.005,-4.854,0.151,4.929,-2.578,-2.351,-0.803,-0.689,-0.095,0.401,0.294,-1.209,0.066,-0.034,-0.796
'0:00.878',-5.005,-4.852,0.153,4.928,-2.579,-2.349,-0.804,-0.702,-0.107,0.395,0.293,-1.207,0.066,-0.032,-0.791
'0:00.879',-5.011,-4.856,0.155,4.933,-2.583,-2.35,-0.808,-0.717,-0.121,0.385,0.29,-1.208,0.065,-0.029,-0.787
'0:00.880',-5.013,-4.854,0.158,4.933,-2.586,-2.348,-0.809,-0.732,-0.133,0.38,0.288,-1.206,0.064,-0.024,-0.783
'0:00.881',-5.016,-4.854,0.161,4.934,-2.588,-2.346,-0.809,-0.745,-0.145,0.371,0.285,-1.207,0.063,-0.025,-0.778
'0:00.882',-5.019,-4.858,0.161,4.938,-2.59,-2.349,-0.814,-0.758,-0.16,0.362,0.281,-1.208,0.06,-0.028,-0.772
'0:00.883',-5.026,-4.862,0.163,4.944,-2.594,-2.349,-0.815,-0.774,-0.176,0.352,0.276,-1.212,0.057,-0.028,-0.767
'0:00.884',-5.027,-4.863,0.165,4.945,-2.596,-2.349,-0.816,-0.789,-0.19,0.342,0.271,-1.214,0.052,-0.029,-0.763
'0:00.885',-5.03,-4.864,0.166,4.947,-2.598,-2.349,-0.821,-0.805,-0.205,0.332,0.266,-1.217,0.049,-0.025,-0.758
'0:00.886',-5.036,-4.87,0.166,4.952,-2.601,-2.352,-0.824,-0.823,-0.222,0.32,0.259,-1.219,0.046,-0.025,-0.753
'0:00.887',-5.037,-4.873,0.164,4.955,-2.6,-2.354,-0.829,-0.838,-0.237,0.307,0.253,-1.222,0.043,-0.03,-0.747
'0:00.888',-5.04,-4.875,0.165,4.957,-2.603,-2.355,-0.827,-0.851,-0.252,0.296,0.246,-1.224,0.038,-0.03,-0.742
'0:00.889',-5.043,-4.878,0.164,4.961,-2.604,-2.357,-0.826,-0.865,-0.267,0.284,0.237,-1.23,0.031,-0.03,-0.737
'0:00.890',-5.048,-4.881,0.166,4.965,-2.607,-2.357,-0.831,-0.88,-0.284,0.271,0.228,-1.234,0.026,-0.033,-0.731
'0:00.891',-5.053,-4.884,0.169,4.968,-2.611,-2.357,-0.833,-0.895,-0.3,0.26,0.22,-1.238,0.021,-0.037,-0.726
'0:00.892',-5.056,-4.886,0.169,4.971,-2.612,-2.359,-0.835,-0.911,-0.317,0.245,0.21,-1.244,0.015,-0.037,-0.72
'0:00.893',-5.061,-4.894,0.168,4.978,-2.615,-2.362,-0.835,-0.927,-0.334,0.231,0.199,-1.249,0.007,-0.039,-0.715
'0:00.894',-5.066,-4.897,0.168,4.981,-2.616,-2.365,-0.834,-0.943,-0.35,0.216,0.189,-1.254,0.001,-0.043,-0.709
'0:00.895',-5.071,-4.899,0.171,4.985,-2.62,-2.365,-0.836,-0.958,-0.367,0.202,0.179,-1.26,-0.005,-0.043,-0.704
'0:00.896',-5.074,-4.907,0.167,4.99,-2.62,-2.369,-0.839,-0.974,-0.386,0.186,0.167,-1.267,-0.013,-0.048,-0.7
'0:00.897',-5.079,-4.913,0.165,4.995,-2.622,-2.374,-0.84,-0.989,-0.403,0.17,0.155,-1.276,-0.022,-0.052,-0.695
'0:00.898',-5.088,-4.919,0.169,5.003,-2.628,-2.375,-0.84,-1.004,-0.42,0.153,0.142,-1.284,-0.03,-0.051,-0.689
'0:00.899',-5.094,-4.924,0.17,5.008,-2.631,-2.377,-0.839,-1.02,-0.439,0.138,0.13,-1.292,-0.04,-0.053,-0.683
'0:00.900',-5.096,-4.927,0.169,5.011,-2.632,-2.379,-0.841,-1.034,-0.456,0.122,0.117,-1.298,-0.05,-0.057,-0.676
'0:00.901',-5.1,-4.929,0.171,5.014,-2.635,-2.379,-0.84,-1.048,-0.472,0.107,0.108,-1.302,-0.058,-0.059,-0.671
'0:00.902',-5.102,-4.93,0.172,5.016,-2.637,-2.379,-0.838,-1.059,-0.487,0.092,0.099,-1.31,-0.067,-0.065,-0.667
'0:00.903',-5.104,-4.933,0.171,5.018,-2.638,-2.381,-0.836,-1.071,-0.501,0.077,0.086,-1.317,-0.074,-0.07,-0.661
'0:00.904',-5.11,-4.936,0.173,5.023,-2.642,-2.381,-0.837,-1.083,-0.516,0.062,0.072,-1.326,-0.085,-0.068,-0.657
'0:00.905',-5.115,-4.943,0.172,5.029,-2.643,-2.385,-0.839,-1.098,-0.533,0.046,0.06,-1.335,-0.093,-0.068,-0.652
'0:00.906',-5.117,-4.947,0.169,5.032,-2.643,-2.389,-0.836,-1.109,-0.549,0.03,0.048,-1.341,-0.102,-0.077,-0.646
'0:00.907',-5.119,-4.949,0.169,5.034,-2.643,-2.39,-0.836,-1.121,-0.565,0.015,0.036,-1.349,-0.111,-0.083,-0.64
'0:00.908',-5.123,-4.954,0.17,5.038,-2.647,-2.392,-0.832,-1.132,-0.579,-0.001,0.024,-1.357,-0.121,-0.087,-0.636
'0:00.909',-5.127,-4.957,0.17,5.042,-2.648,-2.393,-0.831,-1.145,-0.594,-0.018,0.011,-1.367,-0.132,-0.092,-0.632
'0:00.910',-5.133,-4.964,0.169,5.048,-2.651,-2.397,-0.83,-1.154,-0.61,-0.033,-0.003,-1.377,-0.142,-0.093,-0.627
'0:00.911',-5.141,-4.971,0.17,5.056,-2.655,-2.401,-0.828,-1.165,-0.623,-0.045,-0.015,-1.384,-0.151,-0.099,-0.624
'0:00.912',-5.145,-4.974,0.171,5.059,-2.658,-2.401,-0.828,-1.175,-0.636,-0.059,-0.027,-1.391,-0.161,-0.103,-0.62
'0:00.913',-5.149,-4.981,0.169,5.065,-2.659,-2.406,-0.826,-1.183,-0.649,-0.074,-0.038,-1.399,-0.171,-0.105,-0.616
'0:00.914',-5.156,-4.99,0.166,5.073,-2.661,-2.412,-0.824,-1.194,-0.663,-0.09,-0.054,-1.412,-0.182,-0.113,-0.612
'0:00.915',-5.162,-4.998,0.164,5.08,-2.663,-2.417,-0.822,-1.203,-0.676,-0.105,-0.067,-1.421,-0.193,-0.117,-0.608
'0:00.916',-5.168,-5.005,0.162,5.086,-2.664,-2.421,-0.82,-1.212,-0.688,-0.118,-0.078,-1.428,-0.2,-0.121,-0.604
'0:00.917',-5.173,-5.012,0.161,5.093,-2.667,-2.425,-0.821,-1.222,-0.702,-0.132,-0.091,-1.438,-0.209,-0.124,-0.6
'0:00.918',-5.181,-5.021,0.161,5.101,-2.671,-2.43,-0.823,-1.232,-0.716,-0.147,-0.106,-1.447,-0.218,-0.128,-0.596
'0:00.919',-5.184,-5.024,0.159,5.104,-2.671,-2.433,-0.821,-1.237,-0.724,-0.159,-0.117,-1.454,-0.226,-0.136,-0.593
'0:00.920',-5.186,-5.028,0.157,5.107,-2.671,-2.436,-0.818,-1.242,-0.733,-0.17,-0.128,-1.463,-0.235,-0.139,-0.591
'0:00.921',-5.194,-5.037,0.156,5.115,-2.675,-2.44,-0.816,-1.25,-0.744,-0.182,-0.14,-1.473,-0.245,-0.146,-0.587
'0:00.922',-5.199,-5.043,0.154,5.121,-2.676,-2.445,-0.816,-1.258,-0.753,-0.194,-0.151,-1.482,-0.254,-0.153,-0.585
'0:00.923',-5.203,-5.051,0.151,5.127,-2.677,-2.45,-0.815,-1.265,-0.764,-0.208,-0.164,-1.491,-0.263,-0.152,-0.582
'0:00.924',-5.211,-5.061,0.15,5.136,-2.68,-2.455,-0.812,-1.271,-0.775,-0.22,-0.175,-1.5,-0.272,-0.158,-0.581
'0:00.925',-5.215,-5.066,0.147,5.14,-2.681,-2.459,-0.81,-1.278,-0.785,-0.233,-0.187,-1.51,-0.279,-0.162,-0.579
'0:00.926',-5.218,-5.074,0.145,5.146,-2.682,-2.464,-0.811,-1.286,-0.795,-0.244,-0.198,-1.517,-0.286,-0.171,-0.578
'0:00.927',-5.221,-5.079,0.141,5.149,-2.681,-2.468,-0.809,-1.29,-0.803,-0.254,-0.207,-1.524,-0.294,-0.174,-0.575
'0:00.928',-5.226,-5.085,0.141,5.155,-2.683,-2.471,-0.809,-1.295,-0.811,-0.265,-0.217,-1.532,-0.301,-0.173,-0.571
'0:00.929',-5.232,-5.089,0.142,5.16,-2.687,-2.473,-0.808,-1.3,-0.819,-0.273,-0.225,-1.538,-0.308,-0.177,-0.571
'0:00.930',-5.239,-5.098,0.141,5.168,-2.691,-2.478,-0.807,-1.307,-0.828,-0.284,-0.234,-1.546,-0.317,-0.176,-0.57
'0:00.931',-5.249,-5.109,0.141,5.178,-2.695,-2.484,-0.806,-1.312,-0.835,-0.292,-0.243,-1.554,-0.324,-0.18,-0.568
'0:00.932',-5.247,-5.108,0.138,5.178,-2.692,-2.485,-0.8,-1.312,-0.839,-0.298,-0.25,-1.558,-0.33,-0.187,-0.566
'0:00.933',-5.247,-5.111,0.136,5.178,-2.692,-2.487,-0.797,-1.315,-0.845,-0.305,-0.258,-1.563,-0.336,-0.191,-0.564
'0:00.934',-5.253,-5.117,0.136,5.184,-2.694,-2.49,-0.797,-1.318,-0.851,-0.316,-0.269,-1.571,-0.343,-0.197,-0.563
'0:00.935',-5.255,-5.12,0.134,5.188,-2.694,-2.494,-0.798,-1.324,-0.86,-0.325,-0.277,-1.577,-0.349,-0.201,-0.561
'0:00.936',-5.256,-5.123,0.132,5.189,-2.694,-2.495,-0.795,-1.326,-0.863,-0.331,-0.282,-1.581,-0.353,-0.201,-0.559
'0:00.937',-5.259,-5.128,0.13,5.194,-2.695,-2.499,-0.793,-1.329,-0.868,-0.338,-0.289,-1.585,-0.359,-0.204,-0.557
'0:00.938',-5.265,-5.133,0.132,5.199,-2.699,-2.501,-0.789,-1.331,-0.874,-0.344,-0.296,-1.591,-0.364,-0.206,-0.556
'0:00.939',-5.269,-5.137,0.131,5.202,-2.7,-2.502,-0.787,-1.333,-0.878,-0.351,-0.303,-1.597,-0.371,-0.207,-0.555
'0:00.940',-5.268,-5.141,0.127,5.204,-2.697,-2.507,-0.788,-1.337,-0.885,-0.359,-0.31,-1.603,-0.377,-0.211,-0.553
'0:00.941',-5.266,-5.142,0.124,5.204,-2.695,-2.509,-0.787,-1.337,-0.888,-0.363,-0.315,-1.605,-0.379,-0.214,-0.552
'0:00.942',-5.266,-5.146,0.118,5.206,-2.692,-2.514,-0.789,-1.341,-0.891,-0.369,-0.32,-1.611,-0.382,-0.218,-0.551
'0:00.943',-5.271,-5.152,0.118,5.211,-2.695,-2.517,-0.789,-1.345,-0.896,-0.374,-0.324,-1.615,-0.386,-0.219,-0.55
'0:00.944',-5.272,-5.154,0.118,5.213,-2.696,-2.518,-0.786,-1.344,-0.897,-0.376,-0.327,-1.615,-0.388,-0.221,-0.548
'0:00.945',-5.271,-5.154,0.117,5.213,-2.694,-2.519,-0.784,-1.345,-0.899,-0.381,-0.332,-1.619,-0.391,-0.227,-0.546
'0:00.946',-5.279,-5.16,0.118,5.22,-2.698,-2.522,-0.783,-1.348,-0.906,-0.386,-0.338,-1.625,-0.397,-0.228,-0.546
'0:00.947',-5.284,-5.165,0.118,5.224,-2.701,-2.523,-0.78,-1.349,-0.909,-0.391,-0.341,-1.628,-0.401,-0.225,-0.547
'0:00.948',-5.282,-5.166,0.116,5.224,-2.7,-2.525,-0.778,-1.351,-0.911,-0.394,-0.344,-1.63,-0.404,-0.225,-0.546
'0:00.949',-5.287,-5.171,0.116,5.229,-2.701,-2.527,-0.779,-1.353,-0.915,-0.4,-0.35,-1.634,-0.407,-0.23,-0.545
'0:00.950',-5.295,-5.178,0.117,5.236,-2.706,-2.53,-0.779,-1.357,-0.92,-0.405,-0.355,-1.639,-0.41,-0.229,-0.544
'0:00.951',-5.293,-5.179,0.114,5.237,-2.704,-2.533,-0.78,-1.357,-0.923,-0.407,-0.358,-1.641,-0.41,-0.228,-0.542
'0:00.952',-5.291,-5.178,0.114,5.234,-2.702,-2.532,-0.78,-1.359,-0.925,-0.41,-0.361,-1.643,-0.412,-0.231,-0.541
'0:00.953',-5.29,-5.176,0.114,5.234,-2.702,-2.531,-0.779,-1.36,-0.926,-0.412,-0.364,-1.646,-0.415,-0.236,-0.542
'0:00.954',-5.293,-5.18,0.113,5.237,-2.704,-2.533,-0.778,-1.359,-0.926,-0.413,-0.366,-1.646,-0.417,-0.238,-0.542
'0:00.955',-5.295,-5.181,0.113,5.237,-2.704,-2.534,-0.777,-1.361,-0.929,-0.416,-0.369,-1.647,-0.419,-0.236,-0.541
'0:00.956',-5.294,-5.181,0.113,5.237,-2.704,-2.534,-0.776,-1.361,-0.932,-0.418,-0.372,-1.651,-0.422,-0.237,-0.541
'0:00.957',-5.296,-5.183,0.113,5.239,-2.704,-2.535,-0.774,-1.363,-0.934,-0.42,-0.374,-1.653,-0.425,-0.237,-0.54
'0:00.958',-5.295,-5.183,0.112,5.238,-2.703,-2.535,-0.773,-1.363,-0.934,-0.422,-0.376,-1.653,-0.424,-0.239,-0.541
'0:00.959',-5.294,-5.184,0.111,5.239,-2.703,-2.536,-0.772,-1.363,-0.934,-0.422,-0.377,-1.653,-0.425,-0.24,-0.541
'0:00.960',-5.293,-5.186,0.107,5.239,-2.7,-2.538,-0.772,-1.363,-0.938,-0.425,-0.379,-1.655,-0.426,-0.242,-0.54
'0:00.961',-5.295,-5.187,0.107,5.24,-2.701,-2.539,-0.772,-1.365,-0.939,-0.428,-0.382,-1.659,-0.429,-0.243,-0.54
'0:00.962',-5.301,-5.191,0.111,5.246,-2.706,-2.539,-0.773,-1.367,-0.942,-0.429,-0.383,-1.659,-0.431,-0.242,-0.539
'0:00.963',-5.304,-5.191,0.113,5.247,-2.708,-2.538,-0.773,-1.368,-0.942,-0.429,-0.382,-1.659,-0.432,-0.244,-0.54
'0:00.964',-5.301,-5.189,0.111,5.245,-2.706,-2.539,-0.774,-1.369,-0.942,-0.431,-0.386,-1.661,-0.432,-0.245,-0.539
'0:00.965',-5.298,-5.189,0.11,5.244,-2.704,-2.539,-0.775,-1.37,-0.944,-0.433,-0.387,-1.661,-0.432,-0.244,-0.538
'0:00.966',-5.298,-5.189,0.108,5.243,-2.703,-2.54,-0.776,-1.373,-0.947,-0.435,-0.387,-1.662,-0.433,-0.246,-0.536
'0:00.967',-5.303,-5.193,0.11,5.247,-2.706,-2.542,-0.775,-1.375,-0.949,-0.437,-0.389,-1.663,-0.434,-0.245,-0.536
'0:00.968',-5.304,-5.194,0.111,5.249,-2.708,-2.541,-0.775,-1.373,-0.948,-0.437,-0.39,-1.665,-0.437,-0.24,-0.537
'0:00.969',-5.298,-5.19,0.107,5.244,-2.702,-2.542,-0.776,-1.376,-0.951,-0.438,-0.389,-1.665,-0.435,-0.245,-0.536
'0:00.970',-5.294,-5.189,0.104,5.241,-2.699,-2.542,-0.776,-1.377,-0.951,-0.44,-0.389,-1.664,-0.435,-0.249,-0.536
'0:00.971',-5.293,-5.19,0.102,5.242,-2.697,-2.544,-0.778,-1.379,-0.953,-0.443,-0.391,-1.665,-0.438,-0.252,-0.534
'0:00.972',-5.292,-5.189,0.102,5.24,-2.696,-2.543,-0.776,-1.379,-0.953,-0.441,-0.39,-1.665,-0.438,-0.254,-0.534
'0:00.973',-5.291,-5.188,0.103,5.239,-2.696,-2.542,-0.776,-1.377,-0.952,-0.439,-0.389,-1.665,-0.439,-0.249,-0.533
'0:00.974',-5.293,-5.189,0.103,5.241,-2.698,-2.543,-0.778,-1.379,-0.954,-0.441,-0.39,-1.667,-0.439,-0.249,-0.534
'0:00.975',-5.296,-5.191,0.104,5.244,-2.7,-2.543,-0.777,-1.378,-0.953,-0.442,-0.39,-1.666,-0.438,-0.253,-0.533
'0:00.976',-5.295,-5.191,0.103,5.242,-2.7,-2.543,-0.776,-1.379,-0.953,-0.443,-0.389,-1.666,-0.439,-0.256,-0.533
'0:00.977',-5.295,-5.192,0.102,5.243,-2.698,-2.545,-0.774,-1.379,-0.954,-0.443,-0.39,-1.665,-0.438,-0.258,-0.532
'0:00.978',-5.292,-5.191,0.1,5.242,-2.696,-2.545,-0.775,-1.379,-0.954,-0.442,-0.388,-1.661,-0.436,-0.256,-0.531
'0:00.979',-5.29,-5.19,0.099,5.239,-2.694,-2.545,-0.775,-1.379,-0.955,-0.443,-0.388,-1.661,-0.435,-0.255,-0.531
'0:00.980',-5.293,-5.192,0.101,5.242,-2.697,-2.545,-0.775,-1.381,-0.958,-0.446,-0.392,-1.665,-0.437,-0.256,-0.53
'0:00.981',-5.295,-5.194,0.101,5.244,-2.697,-2.546,-0.776,-1.382,-0.96,-0.446,-0.394,-1.667,-0.439,-0.253,-0.529
'0:00.982',-5.295,-5.196,0.099,5.245,-2.696,-2.549,-0.776,-1.383,-0.962,-0.448,-0.394,-1.667,-0.438,-0.256,-0.529
'0:00.983',-5.292,-5.196,0.096,5.243,-2.693,-2.55,-0.777,-1.384,-0.964,-0.449,-0.393,-1.667,-0.438,-0.254,-0.529
'0:00.984',-5.292,-5.195,0.096,5.243,-2.693,-2.55,-0.777,-1.386,-0.963,-0.449,-0.393,-1.667,-0.438,-0.249,-0.528
'0:00.985',-5.295,-5.198,0.097,5.247,-2.696,-2.55,-0.78,-1.388,-0.967,-0.451,-0.396,-1.669,-0.439,-0.253,-0.528
'0:00.986',-5.295,-5.197,0.098,5.246,-2.697,-2.55,-0.78,-1.389,-0.968,-0.451,-0.396,-1.669,-0.438,-0.255,-0.528
'0:00.987',-5.295,-5.199,0.096,5.247,-2.696,-2.551,-0.779,-1.387,-0.966,-0.453,-0.397,-1.669,-0.439,-0.257,-0.527
'0:00.988',-5.302,-5.204,0.098,5.253,-2.7,-2.553,-0.778,-1.389,-0.969,-0.454,-0.399,-1.67,-0.441,-0.256,-0.527
'0:00.989',-5.306,-5.205,0.101,5.255,-2.703,-2.552,-0.777,-1.389,-0.97,-0.455,-0.399,-1.671,-0.444,-0.255,-0.528
'0:00.990',-5.303,-5.205,0.098,5.253,-2.7,-2.554,-0.78,-1.391,-0.971,-0.457,-0.4,-1.673,-0.444,-0.257,-0.527
'0:00.991',-5.303,-5.205,0.097,5.253,-2.7,-2.554,-0.78,-1.391,-0.972,-0.458,-0.4,-1.672,-0.442,-0.258,-0.526
'0:00.992',-5.301,-5.206,0.095,5.253,-2.698,-2.555,-0.777,-1.389,-0.972,-0.459,-0.402,-1.672,-0.443,-0.257,-0.527
'0:00.993',-5.302,-5.207,0.093,5.255,-2.698,-2.557,-0.779,-1.391,-0.972,-0.461,-0.403,-1.673,-0.443,-0.257,-0.526
'0:00.994',-5.303,-5.208,0.095,5.255,-2.699,-2.557,-0.781,-1.393,-0.972,-0.463,-0.403,-1.673,-0.443,-0.256,-0.526
'0:00.995',-5.303,-5.21,0.093,5.256,-2.698,-2.558,-0.78,-1.393,-0.973,-0.464,-0.404,-1.672,-0.443,-0.255,-0.526
'0:00.996',-5.306,-5.21,0.096,5.258,-2.701,-2.558,-0.781,-1.395,-0.976,-0.465,-0.404,-1.673,-0.442,-0.257,-0.526
'0:00.997',-5.306,-5.21,0.095,5.258,-2.7,-2.558,-0.783,-1.395,-0.978,-0.467,-0.406,-1.676,-0.443,-0.258,-0.526
'0:00.998',-5.306,-5.212,0.094,5.258,-2.7,-2.558,-0.782,-1.397,-0.98,-0.469,-0.406,-1.677,-0.443,-0.255,-0.526
'0:00.999',-5.31,-5.213,0.096,5.261,-2.703,-2.558,-0.782,-1.397,-0.979,-0.466,-0.406,-1.677,-0.443,-0.254,-0.525
'0:01.000',-5.308,-5.212,0.096,5.26,-2.701,-2.558,-0.781,-1.393,-0.977,-0.463,-0.404,-1.675,-0.441,-0.257,-0.524
'0:01.001',-5.306,-5.211,0.094,5.258,-2.7,-2.558,-0.782,-1.395,-0.978,-0.463,-0.403,-1.673,-0.439,-0.258,-0.523
'0:01.002',-5.304,-5.211,0.092,5.258,-2.698,-2.559,-0.782,-1.396,-0.978,-0.463,-0.404,-1.675,-0.439,-0.259,-0.523
'0:01.003',-5.304,-5.209,0.095,5.256,-2.7,-2.557,-0.781,-1.393,-0.976,-0.461,-0.401,-1.673,-0.438,-0.255,-0.523
'0:01.004',-5.309,-5.211,0.098,5.26,-2.703,-2.557,-0.779,-1.392,-0.976,-0.46,-0.404,-1.673,-0.44,-0.25,-0.523
'0:01.005',-5.309,-5.211,0.098,5.26,-2.703,-2.557,-0.781,-1.394,-0.975,-0.458,-0.403,-1.673,-0.44,-0.255,-0.521
'0:01.006',-5.308,-5.21,0.098,5.258,-2.703,-2.555,-0.782,-1.395,-0.976,-0.458,-0.402,-1.671,-0.436,-0.257,-0.52
'0:01.007',-5.306,-5.208,0.097,5.257,-2.701,-2.555,-0.781,-1.393,-0.975,-0.459,-0.402,-1.673,-0.438,-0.256,-0.52
'0:01.008',-5.305,-5.207,0.098,5.255,-2.701,-2.554,-0.781,-1.393,-0.975,-0.459,-0.402,-1.672,-0.439,-0.256,-0.52
'0:01.009',-5.306,-5.206,0.1,5.256,-2.703,-2.553,-0.78,-1.393,-0.976,-0.461,-0.404,-1.673,-0.44,-0.248,-0.521
'0:01.010',-5.305,-5.207,0.098,5.255,-2.701,-2.554,-0.781,-1.393,-0.975,-0.46,-0.404,-1.671,-0.44,-0.248,-0.522
'0:01.011',-5.304,-5.205,0.099,5.255,-2.701,-2.554,-0.781,-1.393,-0.975,-0.46,-0.402,-1.669,-0.438,-0.254,-0.521
'0:01.012',-5.304,-5.204,0.1,5.254,-2.703,-2.551,-0.781,-1.393,-0.975,-0.46,-0.402,-1.67,-0.439,-0.253,-0.523
'0:01.013',-5.307,-5.209,0.098,5.258,-2.702,-2.555,-0.783,-1.397,-0.978,-0.462,-0.405,-1.673,-0.44,-0.251,-0.522
'0:01.014',-5.307,-5.208,0.099,5.258,-2.703,-2.554,-0.784,-1.397,-0.979,-0.464,-0.405,-1.674,-0.441,-0.251,-0.522
'0:01.015',-5.305,-5.205,0.1,5.255,-2.703,-2.553,-0.782,-1.394,-0.974,-0.46,-0.401,-1.672,-0.439,-0.254,-0.523
'0:01.016',-5.304,-5.205,0.099,5.255,-2.701,-2.554,-0.782,-1.393,-0.974,-0.459,-0.401,-1.671,-0.438,-0.254,-0.524
'0:01.017',-5.303,-5.206,0.096,5.254,-2.699,-2.554,-0.782,-1.395,-0.974,-0.459,-0.402,-1.669,-0.438,-0.255,-0.524
'0:01.018',-5.304,-5.208,0.095,5.256,-2.7,-2.557,-0.781,-1.394,-0.974,-0.46,-0.404,-1.673,-0.44,-0.255,-0.524
'0:01.019',-5.306,-5.208,0.097,5.256,-2.701,-2.555,-0.78,-1.393,-0.975,-0.458,-0.404,-1.673,-0.44,-0.253,-0.526
'0:01.020',-5.311,-5.212,0.099,5.261,-2.704,-2.557,-0.78,-1.391,-0.974,-0.458,-0.404,-1.672,-0.441,-0.255,-0.525
'0:01.021',-5.311,-5.213,0.098,5.262,-2.704,-2.558,-0.778,-1.39,-0.972,-0.458,-0.402,-1.671,-0.44,-0.254,-0.525
'0:01.022',-5.309,-5.213,0.096,5.261,-2.702,-2.558,-0.778,-1.391,-0.97,-0.458,-0.4,-1.671,-0.44,-0.255,-0.525
'0:01.023',-5.311,-5.216,0.094,5.264,-2.703,-2.561,-0.78,-1.393,-0.973,-0.462,-0.405,-1.673,-0.441,-0.255,-0.525
'0:01.024',-5.313,-5.216,0.096,5.264,-2.704,-2.56,-0.782,-1.395,-0.974,-0.462,-0.406,-1.673,-0.44,-0.25,-0.524
'0:01.025',-5.311,-5.214,0.097,5.262,-2.704,-2.558,-0.781,-1.395,-0.972,-0.459,-0.403,-1.671,-0.439,-0.252,-0.525
'0:01.026',-5.308,-5.213,0.095,5.26,-2.701,-2.559,-0.781,-1.393,-0.971,-0.459,-0.403,-1.671,-0.439,-0.254,-0.524
'0:01.027',-5.306,-5.212,0.095,5.259,-2.7,-2.558,-0.784,-1.395,-0.973,-0.461,-0.405,-1.671,-0.437,-0.252,-0.523
'0:01.028',-5.308,-5.211,0.097,5.259,-2.702,-2.557,-0.783,-1.393,-0.972,-0.458,-0.404,-1.669,-0.435,-0.249,-0.523
'0:01.029',-5.309,-5.211,0.097,5.26,-2.703,-2.557,-0.782,-1.393,-0.97,-0.458,-0.401,-1.669,-0.435,-0.254,-0.524
'0:01.030',-5.308,-5.21,0.097,5.259,-2.703,-2.557,-0.783,-1.393,-0.971,-0.459,-0.401,-1.669,-0.435,-0.256,-0.523
'0:01.031',-5.308,-5.212,0.096,5.26,-2.702,-2.558,-0.784,-1.393,-0.971,-0.459,-0.402,-1.669,-0.435,-0.257,-0.523
'0:01.032',-5.309,-5.213,0.096,5.261,-2.703,-2.558,-0.784,-1.393,-0.971,-0.46,-0.403,-1.67,-0.436,-0.254,-0.524
'0:01.033',-5.314,-5.216,0.098,5.265,-2.707,-2.558,-0.784,-1.393,-0.971,-0.46,-0.402,-1.671,-0.438,-0.251,-0.524
'0:01.034',-5.319,-5.218,0.101,5.269,-2.71,-2.558,-0.784,-1.393,-0.973,-0.46,-0.406,-1.673,-0.44,-0.248,-0.525
'0:01.035',-5.318,-5.215,0.102,5.266,-2.71,-2.557,-0.784,-1.391,-0.97,-0.458,-0.404,-1.673,-0.44,-0.249,-0.527
'0:01.036',-5.314,-5.215,0.099,5.263,-2.706,-2.558,-0.784,-1.391,-0.969,-0.457,-0.403,-1.672,-0.436,-0.248,-0.526
'0:01.037',-5.314,-5.216,0.098,5.265,-2.707,-2.559,-0.785,-1.392,-0.971,-0.457,-0.403,-1.671,-0.435,-0.244,-0.525
'0:01.038',-5.319,-5.22,0.099,5.269,-2.709,-2.561,-0.785,-1.391,-0.97,-0.457,-0.402,-1.673,-0.436,-0.246,-0.526
'0:01.039',-5.319,-5.22,0.099,5.269,-2.708,-2.561,-0.785,-1.389,-0.97,-0.456,-0.403,-1.674,-0.438,-0.249,-0.526
'0:01.040',-5.317,-5.22,0.097,5.269,-2.708,-2.562,-0.788,-1.39,-0.971,-0.457,-0.403,-1.675,-0.437,-0.249,-0.524
'0:01.041',-5.319,-5.224,0.095,5.271,-2.707,-2.564,-0.789,-1.392,-0.972,-0.459,-0.405,-1.677,-0.437,-0.249,-0.524
'0:01.042',-5.319,-5.224,0.095,5.271,-2.707,-2.564,-0.787,-1.391,-0.972,-0.457,-0.404,-1.677,-0.439,-0.25,-0.525
'0:01.043',-5.321,-5.228,0.092,5.274,-2.707,-2.567,-0.79,-1.393,-0.974,-0.462,-0.407,-1.68,-0.44,-0.254,-0.523
'0:01.044',-5.325,-5.23,0.095,5.277,-2.71,-2.567,-0.787,-1.393,-0.975,-0.463,-0.408,-1.681,-0.442,-0.253,-0.524
'0:01.045',-5.325,-5.229,0.096,5.277,-2.711,-2.566,-0.784,-1.389,-0.973,-0.46,-0.406,-1.679,-0.44,-0.249,-0.525
'0:01.046',-5.324,-5.231,0.092,5.277,-2.708,-2.569,-0.788,-1.389,-0.973,-0.46,-0.406,-1.679,-0.439,-0.247,-0.526
'0:01.047',-5.323,-5.231,0.092,5.277,-2.708,-2.57,-0.789,-1.391,-0.974,-0.463,-0.407,-1.681,-0.442,-0.25,-0.525
'0:01.048',-5.322,-5.23,0.091,5.276,-2.707,-2.57,-0.792,-1.393,-0.975,-0.464,-0.408,-1.681,-0.44,-0.254,-0.523
'0:01.049',-5.323,-5.229,0.093,5.276,-2.708,-2.568,-0.792,-1.391,-0.975,-0.462,-0.406,-1.679,-0.437,-0.251,-0.524
'0:01.050',-5.327,-5.232,0.095,5.279,-2.711,-2.569,-0.793,-1.393,-0.976,-0.464,-0.408,-1.679,-0.439,-0.246,-0.523
'0:01.051',-5.327,-5.234,0.093,5.28,-2.71,-2.571,-0.793,-1.392,-0.977,-0.465,-0.409,-1.681,-0.44,-0.248,-0.523
'0:01.052',-5.325,-5.232,0.093,5.279,-2.709,-2.57,-0.791,-1.391,-0.976,-0.464,-0.409,-1.681,-0.439,-0.25,-0.523
'0:01.053',-5.326,-5.233,0.093,5.279,-2.709,-2.57,-0.791,-1.391,-0.976,-0.465,-0.409,-1.683,-0.44,-0.251,-0.524
'0:01.054',-5.322,-5.231,0.091,5.276,-2.707,-2.57,-0.79,-1.391,-0.977,-0.465,-0.41,-1.683,-0.44,-0.254,-0.524
'0:01.055',-5.322,-5.23,0.091,5.276,-2.707,-2.57,-0.791,-1.391,-0.977,-0.464,-0.41,-1.681,-0.438,-0.253,-0.522
'0:01.056',-5.321,-5.229,0.091,5.275,-2.706,-2.569,-0.791,-1.391,-0.976,-0.463,-0.409,-1.678,-0.436,-0.247,-0.522
'0:01.057',-5.331,-5.236,0.095,5.283,-2.713,-2.57,-0.789,-1.391,-0.978,-0.466,-0.411,-1.681,-0.441,-0.239,-0.524
'0:01.058',-5.335,-5.239,0.097,5.287,-2.716,-2.571,-0.789,-1.391,-0.979,-0.467,-0.413,-1.683,-0.442,-0.241,-0.523
'0:01.059',-5.326,-5.233,0.093,5.279,-2.709,-2.57,-0.789,-1.391,-0.977,-0.465,-0.411,-1.681,-0.438,-0.253,-0.521
'0:01.060',-5.324,-5.232,0.092,5.277,-2.708,-2.57,-0.787,-1.389,-0.974,-0.464,-0.41,-1.679,-0.439,-0.254,-0.522
'0:01.061',-5.322,-5.231,0.09,5.277,-2.706,-2.571,-0.789,-1.387,-0.973,-0.463,-0.411,-1.679,-0.438,-0.253,-0.522
'0:01.062',-5.327,-5.236,0.091,5.281,-2.709,-2.571,-0.79,-1.389,-0.975,-0.464,-0.41,-1.681,-0.435,-0.252,-0.522
'0:01.063',-5.329,-5.236,0.093,5.282,-2.711,-2.571,-0.79,-1.391,-0.977,-0.465,-0.412,-1.681,-0.436,-0.247,-0.522
'0:01.064',-5.329,-5.236,0.093,5.282,-2.711,-2.571,-0.79,-1.391,-0.977,-0.466,-0.413,-1.682,-0.438,-0.249,-0.522
'0:01.065',-5.331,-5.237,0.094,5.284,-2.712,-2.571,-0.787,-1.391,-0.977,-0.467,-0.412,-1.684,-0.441,-0.254,-0.522
'0:01.066',-5.329,-5.236,0.092,5.282,-2.71,-2.572,-0.791,-1.391,-0.978,-0.467,-0.412,-1.683,-0.438,-0.253,-0.522
'0:01.067',-5.333,-5.237,0.096,5.285,-2.715,-2.571,-0.789,-1.389,-0.976,-0.464,-0.411,-1.681,-0.437,-0.248,-0.524
'0:01.068',-5.335,-5.237,0.099,5.286,-2.717,-2.569,-0.786,-1.387,-0.975,-0.464,-0.409,-1.683,-0.441,-0.246,-0.524
'0:01.069',-5.335,-5.237,0.097,5.285,-2.716,-2.57,-0.787,-1.388,-0.976,-0.467,-0.411,-1.683,-0.441,-0.247,-0.523
'0:01.070',-5.329,-5.232,0.097,5.28,-2.713,-2.567,-0.786,-1.389,-0.975,-0.465,-0.411,-1.683,-0.439,-0.248,-0.524
'0:01.071',-5.326,-5.23,0.096,5.277,-2.711,-2.567,-0.789,-1.388,-0.975,-0.464,-0.41,-1.682,-0.438,-0.249,-0.524
