'Elapsed time','i','ii','iii','avr','avl','avf','v1','v2','v3','v4','v5','v6','vx','vy','vz'
'hh:mm:ss.mmm','mV','mV','mV','mV','mV','mV','mV','mV','mV','mV','mV','mV','mV','mV','mV'
'0:00.000',1.157,2.124,0.967,-1.641,0.095,1.546,-0.418,-0.001,-0.015,0.19,0.228,-0.032,0.517,0.794,-0.304
'0:00.001',1.163,2.133,0.971,-1.648,0.096,1.552,-0.424,-0.006,-0.031,0.174,0.213,-0.043,0.506,0.805,-0.3
'0:00.002',1.161,2.125,0.964,-1.643,0.098,1.545,-0.436,-0.014,-0.049,0.158,0.201,-0.051,0.501,0.803,-0.298
'0:00.003',1.165,2.115,0.95,-1.64,0.107,1.532,-0.433,-0.022,-0.056,0.152,0.199,-0.051,0.499,0.787,-0.297
'0:00.004',1.169,2.115,0.946,-1.642,0.112,1.53,-0.43,-0.038,-0.07,0.146,0.193,-0.057,0.488,0.789,-0.294
'0:00.005',1.161,2.117,0.956,-1.639,0.102,1.537,-0.434,-0.062,-0.082,0.142,0.196,-0.052,0.489,0.792,-0.288
'0:00.006',1.154,2.114,0.961,-1.634,0.097,1.538,-0.442,-0.083,-0.091,0.139,0.196,-0.052,0.488,0.787,-0.281
'0:00.007',1.151,2.108,0.958,-1.63,0.097,1.534,-0.452,-0.102,-0.106,0.128,0.185,-0.065,0.478,0.779,-0.272
'0:00.008',1.149,2.104,0.956,-1.627,0.096,1.53,-0.454,-0.114,-0.114,0.123,0.18,-0.069,0.476,0.768,-0.267
'0:00.009',1.147,2.096,0.95,-1.621,0.098,1.524,-0.456,-0.126,-0.127,0.114,0.17,-0.075,0.471,0.764,-0.265
'0:00.010',1.145,2.089,0.945,-1.617,0.1,1.517,-0.467,-0.141,-0.144,0.103,0.162,-0.083,0.463,0.764,-0.259
'0:00.011',1.141,2.083,0.943,-1.611,0.099,1.512,-0.477,-0.147,-0.154,0.096,0.157,-0.086,0.46,0.756,-0.252
'0:00.012',1.133,2.08,0.947,-1.607,0.093,1.514,-0.48,-0.138,-0.148,0.095,0.154,-0.092,0.454,0.758,-0.249
'0:00.013',1.134,2.09,0.956,-1.611,0.088,1.523,-0.485,-0.117,-0.138,0.1,0.15,-0.1,0.449,0.767,-0.255
'0:00.014',1.142,2.103,0.962,-1.623,0.09,1.532,-0.482,-0.12,-0.142,0.092,0.144,-0.103,0.447,0.771,-0.255
'0:00.015',1.125,2.094,0.969,-1.609,0.078,1.532,-0.482,-0.135,-0.15,0.076,0.131,-0.114,0.435,0.775,-0.253
'0:00.016',1.11,2.082,0.972,-1.596,0.069,1.528,-0.484,-0.142,-0.153,0.07,0.122,-0.121,0.423,0.773,-0.254
'0:00.017',1.123,2.079,0.956,-1.601,0.084,1.518,-0.481,-0.158,-0.162,0.062,0.117,-0.125,0.42,0.759,-0.247
'0:00.018',1.117,2.071,0.954,-1.595,0.082,1.512,-0.472,-0.168,-0.167,0.059,0.111,-0.131,0.415,0.746,-0.245
'0:00.019',1.095,2.066,0.971,-1.581,0.062,1.519,-0.465,-0.179,-0.168,0.059,0.114,-0.127,0.413,0.751,-0.248
'0:00.020',1.08,2.057,0.978,-1.569,0.051,1.518,-0.469,-0.195,-0.175,0.046,0.108,-0.131,0.408,0.751,-0.247
'0:00.021',1.081,2.054,0.974,-1.568,0.053,1.514,-0.469,-0.211,-0.185,0.033,0.098,-0.139,0.401,0.749,-0.245
'0:00.022',1.085,2.057,0.972,-1.571,0.057,1.514,-0.469,-0.227,-0.197,0.025,0.09,-0.143,0.396,0.749,-0.242
'0:00.023',1.079,2.051,0.973,-1.565,0.053,1.512,-0.473,-0.226,-0.201,0.021,0.086,-0.147,0.393,0.743,-0.239
'0:00.024',1.083,2.05,0.968,-1.567,0.057,1.509,-0.481,-0.222,-0.212,0.017,0.079,-0.154,0.386,0.744,-0.235
'0:00.025',1.085,2.047,0.963,-1.567,0.061,1.506,-0.495,-0.215,-0.225,0.009,0.072,-0.161,0.378,0.748,-0.23
'0:00.026',1.083,2.049,0.967,-1.567,0.058,1.508,-0.505,-0.205,-0.231,0.006,0.069,-0.164,0.38,0.748,-0.229
'0:00.027',1.069,2.05,0.981,-1.56,0.044,1.516,-0.509,-0.197,-0.233,0.005,0.065,-0.168,0.376,0.748,-0.23
'0:00.028',1.062,2.034,0.973,-1.548,0.044,1.504,-0.508,-0.203,-0.241,-0.003,0.057,-0.172,0.365,0.745,-0.228
'0:00.029',1.062,2.022,0.96,-1.542,0.051,1.492,-0.51,-0.223,-0.262,-0.013,0.053,-0.172,0.365,0.735,-0.223
'0:00.030',1.06,2.023,0.964,-1.542,0.048,1.494,-0.507,-0.234,-0.271,-0.017,0.053,-0.173,0.366,0.73,-0.218
'0:00.031',1.067,2.026,0.96,-1.547,0.053,1.494,-0.502,-0.242,-0.274,-0.017,0.054,-0.169,0.373,0.734,-0.214
'0:00.032',1.063,2.026,0.964,-1.545,0.05,1.495,-0.5,-0.236,-0.249,-0.001,0.065,-0.161,0.384,0.736,-0.22
'0:00.033',1.054,2.027,0.973,-1.542,0.041,1.5,-0.498,-0.227,-0.222,0.015,0.072,-0.161,0.387,0.737,-0.224
'0:00.034',1.055,2.034,0.98,-1.545,0.037,1.508,-0.497,-0.238,-0.233,0.007,0.066,-0.166,0.382,0.742,-0.224
'0:00.035',1.06,2.037,0.978,-1.548,0.041,1.508,-0.5,-0.253,-0.247,-0.005,0.054,-0.173,0.372,0.736,-0.221
'0:00.036',1.069,2.04,0.972,-1.554,0.048,1.506,-0.498,-0.247,-0.243,-0.004,0.055,-0.173,0.371,0.73,-0.216
'0:00.037',1.065,2.039,0.975,-1.553,0.045,1.507,-0.495,-0.248,-0.244,-0.004,0.055,-0.172,0.366,0.735,-0.216
'0:00.038',1.052,2.023,0.972,-1.538,0.041,1.498,-0.496,-0.261,-0.256,-0.013,0.045,-0.181,0.356,0.73,-0.216
'0:00.039',1.044,2.013,0.97,-1.529,0.037,1.492,-0.501,-0.267,-0.261,-0.022,0.038,-0.186,0.354,0.727,-0.21
'0:00.040',1.044,2.008,0.964,-1.527,0.04,1.486,-0.515,-0.271,-0.269,-0.032,0.032,-0.193,0.353,0.725,-0.202
'0:00.041',1.042,2.006,0.965,-1.524,0.038,1.486,-0.521,-0.265,-0.266,-0.032,0.027,-0.198,0.348,0.722,-0.202
'0:00.042',1.042,2.019,0.978,-1.531,0.032,1.499,-0.512,-0.262,-0.259,-0.029,0.024,-0.202,0.339,0.73,-0.211
'0:00.043',1.06,2.033,0.974,-1.547,0.043,1.504,-0.509,-0.261,-0.254,-0.031,0.022,-0.203,0.335,0.737,-0.217
'0:00.044',1.058,2.02,0.963,-1.539,0.047,1.492,-0.521,-0.257,-0.256,-0.04,0.018,-0.204,0.334,0.734,-0.214
'0:00.045',1.044,2.006,0.963,-1.526,0.04,1.485,-0.523,-0.259,-0.262,-0.045,0.016,-0.207,0.33,0.729,-0.213
'0:00.046',1.034,2.005,0.972,-1.52,0.03,1.488,-0.519,-0.244,-0.252,-0.036,0.023,-0.201,0.332,0.721,-0.211
'0:00.047',1.02,1.999,0.98,-1.51,0.019,1.49,-0.521,-0.236,-0.252,-0.038,0.018,-0.203,0.327,0.711,-0.207
'0:00.048',1.023,1.994,0.972,-1.509,0.025,1.484,-0.523,-0.244,-0.261,-0.044,0.015,-0.205,0.321,0.713,-0.204
'0:00.049',1.033,1.999,0.967,-1.516,0.033,1.484,-0.517,-0.244,-0.261,-0.044,0.019,-0.198,0.32,0.719,-0.204
'0:00.050',1.037,2.01,0.975,-1.524,0.031,1.492,-0.505,-0.243,-0.264,-0.047,0.021,-0.198,0.314,0.718,-0.206
'0:00.051',1.041,2.015,0.975,-1.528,0.033,1.496,-0.505,-0.255,-0.273,-0.052,0.021,-0.196,0.312,0.721,-0.204
'0:00.052',1.048,2.02,0.972,-1.534,0.038,1.496,-0.501,-0.259,-0.278,-0.054,0.024,-0.193,0.314,0.723,-0.203
'0:00.053',1.044,2.017,0.973,-1.531,0.035,1.496,-0.501,-0.258,-0.285,-0.061,0.018,-0.201,0.309,0.719,-0.203
'0:00.054',1.036,2.011,0.976,-1.524,0.03,1.494,-0.507,-0.266,-0.289,-0.065,0.013,-0.203,0.309,0.717,-0.202
'0:00.055',1.03,2.003,0.974,-1.518,0.028,1.488,-0.507,-0.272,-0.284,-0.061,0.016,-0.2,0.311,0.713,-0.205
'0:00.056',1.036,2.006,0.971,-1.522,0.033,1.488,-0.511,-0.278,-0.286,-0.062,0.013,-0.203,0.314,0.716,-0.204
'0:00.057',1.042,2.013,0.972,-1.528,0.035,1.492,-0.507,-0.284,-0.288,-0.063,0.012,-0.202,0.316,0.72,-0.202
'0:00.058',1.036,2.001,0.965,-1.519,0.035,1.484,-0.504,-0.291,-0.288,-0.064,0.01,-0.203,0.315,0.715,-0.203
'0:00.059',1.03,1.99,0.96,-1.51,0.035,1.475,-0.51,-0.304,-0.294,-0.07,0.005,-0.205,0.318,0.709,-0.2
'0:00.060',1.024,1.986,0.963,-1.505,0.03,1.474,-0.514,-0.314,-0.302,-0.077,-0.001,-0.21,0.317,0.709,-0.198
'0:00.061',1.028,1.986,0.96,-1.508,0.034,1.474,-0.521,-0.314,-0.306,-0.079,-0.002,-0.215,0.317,0.712,-0.196
'0:00.062',1.034,1.994,0.961,-1.514,0.036,1.478,-0.526,-0.31,-0.31,-0.081,-0.002,-0.216,0.315,0.718,-0.193
'0:00.063',1.031,2.001,0.971,-1.516,0.03,1.486,-0.53,-0.303,-0.311,-0.078,0.001,-0.217,0.31,0.72,-0.196
'0:00.064',1.04,2.014,0.975,-1.528,0.033,1.495,-0.519,-0.288,-0.31,-0.076,0.006,-0.215,0.31,0.724,-0.201
'0:00.065',1.038,2.018,0.98,-1.528,0.029,1.498,-0.502,-0.278,-0.315,-0.082,0.004,-0.216,0.308,0.727,-0.205
'0:00.066',1.03,2.018,0.989,-1.524,0.02,1.504,-0.499,-0.277,-0.316,-0.082,0.004,-0.217,0.306,0.726,-0.211
'0:00.067',1.046,2.03,0.985,-1.538,0.03,1.508,-0.502,-0.274,-0.31,-0.077,0.003,-0.219,0.306,0.727,-0.211
'0:00.068',1.048,2.026,0.979,-1.538,0.035,1.503,-0.503,-0.269,-0.301,-0.079,-0.002,-0.222,0.308,0.723,-0.21
'0:00.069',1.048,2.026,0.979,-1.538,0.035,1.502,-0.499,-0.266,-0.301,-0.085,-0.006,-0.222,0.306,0.728,-0.212
'0:00.070',1.056,2.03,0.975,-1.544,0.04,1.503,-0.497,-0.266,-0.306,-0.088,-0.007,-0.218,0.306,0.728,-0.21
'0:00.071',1.044,2.019,0.976,-1.532,0.034,1.498,-0.494,-0.27,-0.308,-0.086,-0.004,-0.215,0.31,0.719,-0.209
'0:00.072',1.034,2.02,0.986,-1.528,0.024,1.504,-0.486,-0.286,-0.305,-0.082,-0.005,-0.214,0.31,0.728,-0.213
'0:00.073',1.036,2.022,0.987,-1.53,0.025,1.504,-0.495,-0.304,-0.312,-0.084,-0.013,-0.221,0.307,0.734,-0.211
'0:00.074',1.04,2.022,0.983,-1.531,0.028,1.503,-0.5,-0.297,-0.31,-0.074,-0.006,-0.217,0.316,0.735,-0.21
'0:00.075',1.027,2.021,0.995,-1.524,0.016,1.508,-0.5,-0.27,-0.283,-0.053,0.009,-0.207,0.324,0.737,-0.214
'0:00.076',1.026,2.008,0.982,-1.518,0.022,1.496,-0.509,-0.254,-0.282,-0.059,0.001,-0.213,0.32,0.723,-0.208
'0:00.077',1.02,1.994,0.975,-1.508,0.022,1.485,-0.503,-0.257,-0.29,-0.067,-0.001,-0.211,0.318,0.713,-0.199
'0:00.078',1.014,1.998,0.986,-1.506,0.013,1.492,-0.487,-0.263,-0.285,-0.058,0.007,-0.203,0.316,0.719,-0.203
'0:00.079',1.03,2.013,0.983,-1.522,0.023,1.498,-0.475,-0.283,-0.3,-0.062,0.008,-0.202,0.314,0.721,-0.203
'0:00.080',1.038,2.004,0.967,-1.522,0.035,1.486,-0.49,-0.318,-0.328,-0.081,0,-0.205,0.312,0.717,-0.193
'0:00.081',1.04,2,0.961,-1.52,0.04,1.48,-0.5,-0.32,-0.322,-0.077,0.005,-0.197,0.319,0.715,-0.19
'0:00.082',1.028,1.997,0.969,-1.513,0.029,1.484,-0.507,-0.31,-0.309,-0.075,0.002,-0.203,0.314,0.711,-0.184
'0:00.083',1.027,1.992,0.966,-1.51,0.03,1.48,-0.523,-0.31,-0.309,-0.076,-0.003,-0.207,0.316,0.709,-0.18
'0:00.084',1.035,2.003,0.97,-1.52,0.033,1.486,-0.526,-0.296,-0.302,-0.066,0.004,-0.202,0.326,0.717,-0.186
'0:00.085',1.03,2.009,0.979,-1.52,0.026,1.494,-0.535,-0.294,-0.306,-0.067,-0.001,-0.21,0.322,0.724,-0.189
'0:00.086',1.03,2.01,0.981,-1.521,0.025,1.496,-0.544,-0.298,-0.312,-0.069,-0.004,-0.215,0.32,0.72,-0.186
'0:00.087',1.024,2.003,0.979,-1.514,0.022,1.491,-0.543,-0.292,-0.31,-0.066,-0.002,-0.212,0.321,0.717,-0.19
'0:00.088',1.021,2,0.98,-1.511,0.021,1.49,-0.539,-0.286,-0.298,-0.056,0.004,-0.207,0.322,0.721,-0.19
'0:00.089',1.031,2.013,0.983,-1.522,0.024,1.498,-0.529,-0.283,-0.294,-0.054,0.006,-0.208,0.317,0.718,-0.191
'0:00.090',1.032,2.012,0.98,-1.522,0.026,1.496,-0.524,-0.284,-0.302,-0.066,-0.003,-0.213,0.311,0.712,-0.19
'0:00.091',1.028,2.005,0.978,-1.516,0.025,1.492,-0.526,-0.285,-0.304,-0.073,-0.008,-0.219,0.307,0.711,-0.185
'0:00.092',1.026,2.002,0.977,-1.514,0.024,1.49,-0.528,-0.283,-0.303,-0.071,-0.007,-0.22,0.306,0.717,-0.185
'0:00.093',1.03,2.003,0.974,-1.518,0.028,1.489,-0.524,-0.279,-0.3,-0.068,-0.005,-0.216,0.307,0.722,-0.186
'0:00.094',1.04,2.006,0.967,-1.523,0.036,1.486,-0.514,-0.281,-0.3,-0.068,-0.002,-0.212,0.31,0.719,-0.19
'0:00.095',1.046,2.002,0.956,-1.524,0.045,1.479,-0.515,-0.291,-0.309,-0.073,-0.002,-0.212,0.317,0.715,-0.19
'0:00.096',1.04,2.002,0.962,-1.522,0.039,1.482,-0.516,-0.3,-0.316,-0.074,-0.002,-0.211,0.322,0.713,-0.189
'0:00.097',1.03,2.004,0.975,-1.517,0.027,1.49,-0.506,-0.302,-0.313,-0.07,0.001,-0.209,0.321,0.717,-0.193
'0:00.098',1.031,2.002,0.972,-1.517,0.029,1.488,-0.504,-0.294,-0.308,-0.068,-0.001,-0.21,0.324,0.719,-0.192
'0:00.099',1.036,2.002,0.967,-1.52,0.034,1.484,-0.505,-0.294,-0.305,-0.068,-0.003,-0.212,0.323,0.719,-0.195
'0:00.100',1.033,2.002,0.969,-1.518,0.032,1.486,-0.509,-0.303,-0.31,-0.079,-0.009,-0.22,0.313,0.716,-0.197
'0:00.101',1.035,2.008,0.974,-1.522,0.03,1.491,-0.509,-0.3,-0.308,-0.083,-0.012,-0.221,0.316,0.718,-0.196
'0:00.102',1.043,2.018,0.975,-1.531,0.034,1.496,-0.506,-0.286,-0.296,-0.082,-0.013,-0.223,0.319,0.723,-0.198
'0:00.103',1.048,2.022,0.975,-1.535,0.036,1.498,-0.503,-0.268,-0.281,-0.073,-0.008,-0.221,0.314,0.721,-0.206
'0:00.104',1.052,2.032,0.98,-1.542,0.036,1.506,-0.496,-0.262,-0.276,-0.064,0.006,-0.205,0.319,0.726,-0.209
'0:00.105',1.044,2.032,0.988,-1.539,0.028,1.51,-0.509,-0.258,-0.281,-0.069,0.007,-0.203,0.322,0.727,-0.204
'0:00.106',1.034,2.026,0.993,-1.53,0.02,1.51,-0.525,-0.253,-0.286,-0.075,0.001,-0.209,0.317,0.729,-0.201
'0:00.107',1.027,2.023,0.997,-1.526,0.015,1.51,-0.524,-0.265,-0.3,-0.081,0.001,-0.207,0.318,0.736,-0.198
'0:00.108',1.026,2.024,0.999,-1.526,0.013,1.512,-0.521,-0.268,-0.308,-0.081,0.002,-0.207,0.317,0.734,-0.196
'0:00.109',1.024,2.022,0.998,-1.524,0.013,1.51,-0.522,-0.27,-0.318,-0.085,-0.004,-0.213,0.312,0.737,-0.197
'0:00.110',1.018,2.014,0.997,-1.516,0.01,1.506,-0.522,-0.284,-0.333,-0.093,-0.013,-0.219,0.308,0.729,-0.2
'0:00.111',1.023,2.014,0.992,-1.519,0.015,1.503,-0.526,-0.293,-0.341,-0.099,-0.02,-0.226,0.304,0.73,-0.197
'0:00.112',1.022,2.009,0.988,-1.516,0.017,1.499,-0.524,-0.293,-0.339,-0.096,-0.022,-0.227,0.305,0.732,-0.194
'0:00.113',1.018,2.01,0.992,-1.514,0.013,1.501,-0.513,-0.293,-0.325,-0.083,-0.015,-0.223,0.311,0.724,-0.199
'0:00.114',1.022,2.005,0.984,-1.514,0.019,1.494,-0.505,-0.299,-0.311,-0.071,-0.01,-0.221,0.312,0.723,-0.204
'0:00.115',1.022,2.001,0.979,-1.512,0.021,1.49,-0.51,-0.31,-0.315,-0.074,-0.011,-0.218,0.313,0.724,-0.203
'0:00.116',1.022,2.003,0.982,-1.513,0.02,1.492,-0.517,-0.315,-0.313,-0.077,-0.011,-0.22,0.315,0.724,-0.196
'0:00.117',1.021,1.995,0.975,-1.508,0.023,1.485,-0.527,-0.315,-0.3,-0.072,-0.011,-0.224,0.319,0.717,-0.19
'0:00.118',1.024,1.997,0.974,-1.51,0.025,1.486,-0.532,-0.301,-0.29,-0.067,-0.006,-0.22,0.326,0.723,-0.188
'0:00.119',1.032,2.001,0.97,-1.517,0.031,1.486,-0.529,-0.278,-0.287,-0.068,-0.004,-0.22,0.332,0.723,-0.186
'0:00.120',1.018,1.992,0.974,-1.506,0.022,1.482,-0.53,-0.266,-0.291,-0.07,-0.008,-0.225,0.322,0.712,-0.188
'0:00.121',1.004,1.988,0.984,-1.496,0.009,1.486,-0.523,-0.265,-0.297,-0.07,-0.003,-0.221,0.315,0.713,-0.191
'0:00.122',1.022,2.006,0.985,-1.514,0.018,1.496,-0.513,-0.266,-0.296,-0.065,0.007,-0.212,0.32,0.725,-0.197
'0:00.123',1.036,2.022,0.986,-1.53,0.025,1.504,-0.499,-0.263,-0.287,-0.057,0.013,-0.207,0.319,0.732,-0.205
'0:00.124',1.036,2.025,0.99,-1.53,0.022,1.508,-0.49,-0.263,-0.286,-0.06,0.009,-0.209,0.316,0.731,-0.21
'0:00.125',1.034,2.026,0.993,-1.53,0.02,1.51,-0.491,-0.257,-0.283,-0.059,0.005,-0.208,0.318,0.731,-0.21
'0:00.126',1.024,2.013,0.989,-1.519,0.017,1.501,-0.498,-0.259,-0.286,-0.069,-0.002,-0.213,0.317,0.727,-0.204
'0:00.127',1.018,2.006,0.988,-1.512,0.015,1.497,-0.51,-0.271,-0.296,-0.085,-0.015,-0.224,0.314,0.736,-0.202
'0:00.128',1.034,2.005,0.972,-1.52,0.031,1.488,-0.515,-0.278,-0.301,-0.088,-0.018,-0.225,0.314,0.733,-0.202
'0:00.129',1.037,2.006,0.969,-1.522,0.034,1.488,-0.507,-0.272,-0.295,-0.079,-0.006,-0.218,0.319,0.73,-0.206
'0:00.130',1.008,2.003,0.996,-1.506,0.005,1.5,-0.498,-0.255,-0.282,-0.065,0.004,-0.211,0.316,0.731,-0.215
'0:00.131',1.002,2.004,1.002,-1.504,0,1.503,-0.494,-0.244,-0.273,-0.057,0.013,-0.202,0.318,0.73,-0.213
'0:00.132',1.03,2.027,0.999,-1.529,0.015,1.514,-0.484,-0.24,-0.271,-0.052,0.018,-0.195,0.323,0.74,-0.209
'0:00.133',1.036,2.032,0.997,-1.534,0.019,1.514,-0.477,-0.256,-0.289,-0.069,0.003,-0.205,0.316,0.732,-0.21
'0:00.134',1.031,2.017,0.987,-1.524,0.022,1.502,-0.482,-0.271,-0.298,-0.079,-0.007,-0.21,0.318,0.726,-0.208
'0:00.135',1.033,2.007,0.975,-1.52,0.029,1.492,-0.489,-0.267,-0.29,-0.078,-0.008,-0.208,0.325,0.725,-0.203
'0:00.136',1.034,1.999,0.966,-1.517,0.034,1.482,-0.495,-0.267,-0.288,-0.082,-0.011,-0.21,0.328,0.722,-0.2
'0:00.137',1.03,2.002,0.973,-1.516,0.029,1.488,-0.494,-0.267,-0.284,-0.078,-0.006,-0.208,0.328,0.725,-0.202
'0:00.138',1.024,2.005,0.982,-1.514,0.021,1.494,-0.488,-0.274,-0.294,-0.082,-0.004,-0.205,0.322,0.73,-0.204
'0:00.139',1.028,2.003,0.976,-1.516,0.026,1.49,-0.483,-0.274,-0.3,-0.085,-0.004,-0.207,0.316,0.727,-0.201
'0:00.140',1.042,2.008,0.966,-1.526,0.038,1.488,-0.491,-0.267,-0.3,-0.083,-0.002,-0.205,0.317,0.721,-0.2
'0:00.141',1.046,2.016,0.971,-1.532,0.037,1.494,-0.494,-0.269,-0.304,-0.082,0.004,-0.202,0.315,0.721,-0.203
'0:00.142',1.04,2.021,0.982,-1.53,0.029,1.502,-0.488,-0.27,-0.307,-0.076,0.011,-0.203,0.308,0.725,-0.208
'0:00.143',1.034,2.021,0.987,-1.528,0.023,1.504,-0.493,-0.278,-0.312,-0.075,0.009,-0.204,0.307,0.729,-0.208
'0:00.144',1.03,2.011,0.983,-1.521,0.023,1.497,-0.502,-0.281,-0.31,-0.071,0.011,-0.206,0.309,0.731,-0.206
'0:00.145',1.02,1.996,0.977,-1.508,0.021,1.486,-0.515,-0.285,-0.307,-0.067,0.011,-0.209,0.31,0.724,-0.211
'0:00.146',1.016,1.997,0.982,-1.506,0.017,1.49,-0.526,-0.293,-0.305,-0.064,0.009,-0.212,0.309,0.72,-0.21
'0:00.147',1.01,2.005,0.995,-1.508,0.007,1.5,-0.523,-0.288,-0.287,-0.053,0.017,-0.207,0.313,0.724,-0.208
'0:00.148',1.004,2.002,1,-1.504,0.002,1.502,-0.524,-0.28,-0.277,-0.046,0.023,-0.201,0.315,0.726,-0.205
'0:00.149',1.02,2.009,0.989,-1.515,0.016,1.499,-0.53,-0.274,-0.28,-0.049,0.02,-0.201,0.317,0.728,-0.196
'0:00.150',1.033,2.017,0.985,-1.526,0.024,1.5,-0.53,-0.269,-0.285,-0.051,0.018,-0.202,0.319,0.729,-0.193
'0:00.151',1.035,2.018,0.984,-1.527,0.025,1.502,-0.532,-0.27,-0.285,-0.053,0.015,-0.203,0.318,0.729,-0.196
'0:00.152',1.052,2.034,0.982,-1.543,0.035,1.508,-0.518,-0.251,-0.266,-0.042,0.023,-0.195,0.319,0.731,-0.204
'0:00.153',1.054,2.034,0.98,-1.544,0.036,1.507,-0.504,-0.24,-0.252,-0.035,0.029,-0.185,0.323,0.73,-0.209
'0:00.154',1.046,2.019,0.973,-1.533,0.036,1.496,-0.509,-0.247,-0.257,-0.052,0.011,-0.2,0.314,0.724,-0.203
'0:00.155',1.037,2.01,0.974,-1.524,0.032,1.492,-0.509,-0.247,-0.257,-0.061,0,-0.209,0.304,0.719,-0.203
'0:00.156',1.036,2.014,0.979,-1.526,0.029,1.497,-0.51,-0.255,-0.265,-0.07,-0.003,-0.206,0.309,0.724,-0.207
'0:00.157',1.05,2.022,0.973,-1.536,0.038,1.498,-0.512,-0.263,-0.282,-0.087,-0.011,-0.21,0.313,0.73,-0.203
'0:00.158',1.048,2.026,0.978,-1.538,0.035,1.502,-0.503,-0.257,-0.284,-0.084,-0.003,-0.203,0.315,0.731,-0.206
'0:00.159',1.051,2.033,0.982,-1.542,0.035,1.507,-0.497,-0.256,-0.291,-0.086,-0.002,-0.204,0.31,0.741,-0.21
'0:00.160',1.057,2.03,0.974,-1.544,0.041,1.502,-0.501,-0.27,-0.311,-0.095,-0.008,-0.211,0.309,0.738,-0.209
'0:00.161',1.05,2.026,0.977,-1.539,0.036,1.502,-0.496,-0.269,-0.314,-0.083,0.006,-0.2,0.32,0.731,-0.208
'0:00.162',1.032,2.018,0.987,-1.526,0.022,1.503,-0.494,-0.266,-0.318,-0.076,0.013,-0.198,0.32,0.731,-0.205
'0:00.163',1.03,2.021,0.991,-1.526,0.019,1.506,-0.494,-0.269,-0.325,-0.073,0.018,-0.196,0.324,0.732,-0.21
'0:00.164',1.032,2.025,0.994,-1.528,0.019,1.51,-0.495,-0.269,-0.318,-0.065,0.026,-0.187,0.33,0.736,-0.208
'0:00.165',1.021,2.015,0.995,-1.518,0.013,1.506,-0.497,-0.276,-0.308,-0.059,0.025,-0.191,0.328,0.735,-0.203
'0:00.166',1.023,2.013,0.99,-1.518,0.016,1.502,-0.496,-0.279,-0.306,-0.059,0.024,-0.194,0.329,0.733,-0.204
'0:00.167',1.044,2.019,0.976,-1.532,0.035,1.498,-0.508,-0.274,-0.301,-0.059,0.024,-0.195,0.331,0.737,-0.203
'0:00.168',1.056,2.027,0.972,-1.542,0.042,1.5,-0.523,-0.27,-0.29,-0.051,0.027,-0.194,0.334,0.736,-0.202
'0:00.169',1.042,2.022,0.981,-1.532,0.03,1.502,-0.524,-0.274,-0.291,-0.052,0.025,-0.197,0.334,0.732,-0.203
'0:00.170',1.044,2.019,0.976,-1.532,0.034,1.498,-0.516,-0.284,-0.292,-0.056,0.021,-0.2,0.331,0.728,-0.203
'0:00.171',1.045,2.02,0.975,-1.533,0.035,1.498,-0.509,-0.298,-0.296,-0.058,0.021,-0.202,0.329,0.731,-0.203
'0:00.172',1.038,2.014,0.977,-1.526,0.03,1.496,-0.504,-0.315,-0.302,-0.059,0.018,-0.204,0.329,0.732,-0.203
'0:00.173',1.032,2.009,0.977,-1.52,0.028,1.493,-0.503,-0.311,-0.295,-0.052,0.022,-0.2,0.333,0.725,-0.197
'0:00.174',1.038,2.01,0.973,-1.525,0.033,1.492,-0.511,-0.302,-0.293,-0.052,0.026,-0.197,0.337,0.728,-0.191
'0:00.175',1.044,2.015,0.972,-1.53,0.036,1.494,-0.516,-0.292,-0.292,-0.05,0.029,-0.19,0.339,0.734,-0.193
'0:00.176',1.032,2.015,0.984,-1.524,0.024,1.5,-0.517,-0.29,-0.288,-0.047,0.028,-0.189,0.337,0.729,-0.193
'0:00.177',1.028,2.018,0.99,-1.524,0.019,1.504,-0.516,-0.284,-0.286,-0.047,0.026,-0.19,0.338,0.728,-0.198
'0:00.178',1.032,2.021,0.989,-1.528,0.021,1.506,-0.514,-0.278,-0.283,-0.044,0.025,-0.192,0.336,0.73,-0.206
'0:00.179',1.036,2.018,0.982,-1.527,0.027,1.5,-0.516,-0.294,-0.288,-0.048,0.021,-0.195,0.335,0.73,-0.204
'0:00.180',1.04,2.017,0.977,-1.529,0.031,1.497,-0.521,-0.298,-0.288,-0.053,0.018,-0.195,0.341,0.736,-0.201
'0:00.181',1.04,2.018,0.979,-1.53,0.03,1.499,-0.519,-0.284,-0.281,-0.057,0.018,-0.194,0.344,0.731,-0.2
'0:00.182',1.042,2.014,0.974,-1.528,0.034,1.494,-0.51,-0.267,-0.272,-0.056,0.021,-0.189,0.342,0.722,-0.199
'0:00.183',1.048,2.015,0.968,-1.532,0.04,1.492,-0.51,-0.261,-0.27,-0.054,0.025,-0.186,0.339,0.722,-0.199
'0:00.184',1.039,2.018,0.98,-1.529,0.029,1.499,-0.51,-0.264,-0.276,-0.057,0.025,-0.188,0.341,0.723,-0.202
'0:00.185',1.042,2.023,0.981,-1.533,0.03,1.502,-0.509,-0.262,-0.282,-0.06,0.022,-0.192,0.335,0.728,-0.203
'0:00.186',1.057,2.022,0.966,-1.54,0.045,1.494,-0.512,-0.259,-0.29,-0.059,0.025,-0.19,0.335,0.728,-0.201
'0:00.187',1.048,2.014,0.967,-1.532,0.041,1.49,-0.51,-0.256,-0.297,-0.058,0.025,-0.19,0.336,0.725,-0.204
'0:00.188',1.048,2.021,0.974,-1.535,0.036,1.498,-0.518,-0.262,-0.303,-0.057,0.026,-0.189,0.339,0.725,-0.209
'0:00.189',1.042,2.016,0.975,-1.53,0.033,1.496,-0.53,-0.28,-0.314,-0.062,0.021,-0.193,0.338,0.726,-0.207
'0:00.190',1.028,2.004,0.976,-1.516,0.026,1.49,-0.529,-0.292,-0.319,-0.066,0.017,-0.201,0.329,0.722,-0.205
'0:00.191',1.032,2.006,0.975,-1.52,0.029,1.49,-0.536,-0.3,-0.318,-0.062,0.019,-0.197,0.334,0.72,-0.202
'0:00.192',1.039,2.015,0.977,-1.528,0.031,1.496,-0.542,-0.309,-0.314,-0.065,0.015,-0.199,0.337,0.729,-0.195
'0:00.193',1.044,2.021,0.978,-1.533,0.033,1.5,-0.545,-0.306,-0.294,-0.06,0.012,-0.203,0.337,0.727,-0.193
'0:00.194',1.046,2.015,0.97,-1.531,0.037,1.493,-0.542,-0.301,-0.271,-0.054,0.009,-0.208,0.334,0.722,-0.191
'0:00.195',1.054,2.022,0.969,-1.539,0.043,1.496,-0.531,-0.294,-0.261,-0.048,0.017,-0.202,0.332,0.726,-0.191
'0:00.196',1.061,2.033,0.972,-1.548,0.044,1.502,-0.531,-0.288,-0.269,-0.052,0.015,-0.202,0.335,0.727,-0.19
'0:00.197',1.056,2.029,0.973,-1.543,0.041,1.501,-0.542,-0.292,-0.285,-0.064,0.007,-0.207,0.34,0.731,-0.184
'0:00.198',1.046,2.017,0.972,-1.532,0.037,1.494,-0.544,-0.276,-0.289,-0.061,0.013,-0.203,0.341,0.73,-0.184
'0:00.199',1.037,2.007,0.971,-1.522,0.033,1.49,-0.54,-0.254,-0.289,-0.058,0.016,-0.203,0.338,0.727,-0.186
'0:00.200',1.042,2.007,0.966,-1.524,0.037,1.487,-0.535,-0.248,-0.292,-0.064,0.009,-0.208,0.332,0.719,-0.188
'0:00.201',1.044,2.008,0.965,-1.526,0.04,1.486,-0.529,-0.254,-0.302,-0.076,-0.002,-0.217,0.321,0.719,-0.191
'0:00.202',1.047,2.014,0.968,-1.532,0.039,1.492,-0.522,-0.258,-0.306,-0.076,0.001,-0.216,0.318,0.724,-0.194
'0:00.203',1.058,2.023,0.965,-1.541,0.046,1.494,-0.511,-0.263,-0.299,-0.07,0.005,-0.212,0.319,0.722,-0.196
'0:00.204',1.05,2.019,0.97,-1.535,0.04,1.495,-0.512,-0.274,-0.294,-0.068,0.004,-0.213,0.318,0.724,-0.195
'0:00.205',1.046,2.013,0.968,-1.53,0.039,1.49,-0.518,-0.288,-0.288,-0.065,0.005,-0.211,0.321,0.72,-0.194
'0:00.206',1.047,2.01,0.964,-1.529,0.042,1.487,-0.519,-0.303,-0.299,-0.072,0.003,-0.211,0.32,0.72,-0.194
'0:00.207',1.034,2.015,0.982,-1.526,0.026,1.499,-0.513,-0.305,-0.301,-0.066,0.01,-0.206,0.323,0.729,-0.197
'0:00.208',1.034,2.023,0.989,-1.529,0.022,1.506,-0.517,-0.3,-0.295,-0.054,0.018,-0.201,0.326,0.733,-0.196
'0:00.209',1.03,2.024,0.995,-1.528,0.018,1.51,-0.522,-0.292,-0.299,-0.057,0.014,-0.203,0.32,0.733,-0.194
'0:00.210',1.038,2.025,0.987,-1.532,0.025,1.506,-0.521,-0.279,-0.297,-0.06,0.013,-0.202,0.32,0.737,-0.194
'0:00.211',1.038,2.021,0.984,-1.53,0.026,1.502,-0.528,-0.276,-0.3,-0.065,0.007,-0.205,0.319,0.735,-0.191
'0:00.212',1.03,2.019,0.99,-1.526,0.02,1.505,-0.528,-0.28,-0.303,-0.072,0.003,-0.212,0.317,0.728,-0.186
'0:00.213',1.035,2.021,0.986,-1.528,0.024,1.504,-0.527,-0.286,-0.301,-0.072,0.009,-0.208,0.32,0.728,-0.189
'0:00.214',1.022,2.017,0.995,-1.52,0.013,1.506,-0.523,-0.285,-0.299,-0.072,0.01,-0.206,0.317,0.735,-0.196
'0:00.215',1.026,2.017,0.991,-1.522,0.017,1.504,-0.521,-0.286,-0.302,-0.079,0.005,-0.21,0.314,0.733,-0.194
'0:00.216',1.024,2.015,0.992,-1.52,0.015,1.504,-0.52,-0.295,-0.298,-0.077,0.006,-0.209,0.315,0.728,-0.197
'0:00.217',1.015,2.006,0.992,-1.511,0.011,1.498,-0.52,-0.302,-0.297,-0.081,0.002,-0.213,0.312,0.725,-0.195
'0:00.218',1.031,2.002,0.971,-1.517,0.03,1.486,-0.524,-0.303,-0.298,-0.086,-0.004,-0.215,0.312,0.715,-0.191
'0:00.219',1.038,2.004,0.967,-1.522,0.035,1.486,-0.521,-0.292,-0.29,-0.083,-0.003,-0.213,0.315,0.716,-0.199
'0:00.220',1.036,2,0.964,-1.518,0.035,1.482,-0.53,-0.296,-0.299,-0.092,-0.009,-0.217,0.311,0.713,-0.195
'0:00.221',1.029,1.986,0.958,-1.508,0.035,1.472,-0.54,-0.308,-0.316,-0.103,-0.016,-0.218,0.307,0.701,-0.185
'0:00.222',1.028,1.986,0.96,-1.508,0.034,1.474,-0.54,-0.295,-0.317,-0.099,-0.012,-0.214,0.311,0.704,-0.18
'0:00.223',1.039,1.995,0.957,-1.518,0.041,1.476,-0.547,-0.288,-0.32,-0.095,-0.009,-0.211,0.316,0.712,-0.183
'0:00.224',1.036,1.996,0.961,-1.516,0.037,1.478,-0.546,-0.284,-0.316,-0.084,-0.003,-0.209,0.315,0.714,-0.193
'0:00.225',1.031,1.998,0.967,-1.514,0.032,1.482,-0.531,-0.276,-0.295,-0.059,0.015,-0.197,0.322,0.711,-0.197
'0:00.226',1.036,1.997,0.961,-1.517,0.037,1.479,-0.533,-0.283,-0.296,-0.056,0.015,-0.196,0.327,0.716,-0.19
'0:00.227',1.047,2,0.954,-1.524,0.046,1.476,-0.541,-0.291,-0.306,-0.062,0.005,-0.203,0.325,0.722,-0.184
'0:00.228',1.039,2.002,0.964,-1.521,0.037,1.483,-0.543,-0.291,-0.305,-0.058,0.006,-0.203,0.327,0.719,-0.184
'0:00.229',1.016,2.003,0.988,-1.51,0.013,1.496,-0.537,-0.285,-0.291,-0.045,0.014,-0.199,0.33,0.726,-0.188
'0:00.230',1.017,2,0.983,-1.509,0.017,1.492,-0.532,-0.283,-0.282,-0.042,0.009,-0.203,0.325,0.728,-0.193
'0:00.231',1.027,2.006,0.981,-1.517,0.023,1.494,-0.531,-0.283,-0.276,-0.039,0.007,-0.203,0.322,0.72,-0.193
'0:00.232',1.027,2.014,0.988,-1.521,0.019,1.501,-0.53,-0.28,-0.27,-0.033,0.015,-0.198,0.323,0.718,-0.19
'0:00.233',1.029,2.004,0.975,-1.517,0.027,1.49,-0.544,-0.289,-0.282,-0.047,0.004,-0.207,0.319,0.717,-0.182
'0:00.234',1.032,2.003,0.972,-1.518,0.03,1.488,-0.554,-0.294,-0.286,-0.054,-0.005,-0.218,0.316,0.719,-0.178
'0:00.235',1.026,2.005,0.979,-1.516,0.024,1.492,-0.557,-0.299,-0.293,-0.056,-0.002,-0.217,0.319,0.723,-0.181
'0:00.236',1.026,2.006,0.981,-1.516,0.022,1.494,-0.568,-0.311,-0.306,-0.067,-0.004,-0.219,0.32,0.727,-0.181
'0:00.237',1.036,2.011,0.977,-1.524,0.029,1.494,-0.567,-0.31,-0.308,-0.068,0.002,-0.212,0.321,0.725,-0.181
'0:00.238',1.044,2.027,0.984,-1.536,0.029,1.506,-0.545,-0.295,-0.296,-0.057,0.018,-0.197,0.323,0.729,-0.187
'0:00.239',1.035,2.026,0.991,-1.531,0.021,1.508,-0.535,-0.282,-0.289,-0.053,0.023,-0.196,0.317,0.727,-0.19
'0:00.240',1.03,2.009,0.98,-1.52,0.025,1.494,-0.538,-0.287,-0.304,-0.068,0.013,-0.204,0.311,0.712,-0.186
'0:00.241',1.032,2.004,0.973,-1.518,0.029,1.488,-0.537,-0.293,-0.316,-0.075,0.009,-0.207,0.311,0.711,-0.183
'0:00.242',1.025,2,0.976,-1.512,0.025,1.488,-0.54,-0.3,-0.328,-0.084,0.005,-0.21,0.31,0.714,-0.176
'0:00.243',1.032,1.998,0.967,-1.515,0.033,1.482,-0.543,-0.308,-0.338,-0.087,0.003,-0.212,0.313,0.711,-0.175
'0:00.244',1.034,1.998,0.964,-1.516,0.035,1.48,-0.536,-0.302,-0.329,-0.081,0.005,-0.209,0.316,0.71,-0.183
'0:00.245',1.028,2.001,0.974,-1.514,0.027,1.487,-0.529,-0.302,-0.332,-0.088,0.004,-0.207,0.314,0.713,-0.192
'0:00.246',1.025,2.004,0.98,-1.515,0.022,1.492,-0.519,-0.302,-0.333,-0.09,0.001,-0.21,0.31,0.719,-0.197
'0:00.247',1.024,2.003,0.979,-1.514,0.022,1.491,-0.513,-0.299,-0.329,-0.09,-0.002,-0.214,0.309,0.719,-0.196
'0:00.248',1.03,1.999,0.971,-1.515,0.029,1.485,-0.515,-0.305,-0.329,-0.091,0.001,-0.211,0.316,0.717,-0.196
'0:00.249',1.024,1.994,0.97,-1.51,0.028,1.482,-0.514,-0.321,-0.33,-0.092,-0.001,-0.213,0.315,0.714,-0.197
'0:00.250',1.026,1.994,0.969,-1.51,0.028,1.482,-0.518,-0.326,-0.326,-0.088,0.002,-0.21,0.317,0.716,-0.194
'0:00.251',1.03,1.992,0.962,-1.512,0.034,1.477,-0.526,-0.321,-0.317,-0.081,0.005,-0.207,0.321,0.716,-0.19
'0:00.252',1.02,1.988,0.968,-1.504,0.026,1.478,-0.527,-0.32,-0.315,-0.08,0.005,-0.209,0.321,0.711,-0.185
'0:00.253',1.031,2.005,0.974,-1.518,0.029,1.49,-0.518,-0.312,-0.306,-0.068,0.018,-0.198,0.324,0.714,-0.189
'0:00.254',1.038,2.009,0.972,-1.524,0.033,1.491,-0.516,-0.303,-0.304,-0.07,0.017,-0.2,0.32,0.715,-0.19
'0:00.255',1.034,2.007,0.975,-1.521,0.029,1.492,-0.516,-0.301,-0.312,-0.079,0.011,-0.205,0.316,0.717,-0.191
'0:00.256',1.03,2.006,0.978,-1.519,0.026,1.492,-0.516,-0.305,-0.314,-0.085,0.006,-0.211,0.31,0.718,-0.192
'0:00.257',1.026,1.998,0.973,-1.512,0.026,1.486,-0.526,-0.305,-0.318,-0.088,0.002,-0.216,0.307,0.719,-0.186
'0:00.258',1.037,2.002,0.966,-1.52,0.035,1.484,-0.532,-0.303,-0.326,-0.091,0.004,-0.213,0.31,0.711,-0.183
'0:00.259',1.036,2,0.964,-1.519,0.036,1.482,-0.531,-0.292,-0.323,-0.093,0.002,-0.217,0.306,0.714,-0.186
'0:00.260',1.032,1.994,0.963,-1.514,0.035,1.478,-0.53,-0.283,-0.321,-0.091,0.002,-0.217,0.305,0.72,-0.188
'0:00.261',1.028,1.99,0.964,-1.51,0.032,1.478,-0.534,-0.294,-0.335,-0.101,-0.004,-0.222,0.302,0.712,-0.189
'0:00.262',1.03,1.991,0.962,-1.511,0.034,1.476,-0.535,-0.303,-0.342,-0.101,-0.005,-0.223,0.306,0.715,-0.193
'0:00.263',1.031,1.99,0.959,-1.51,0.035,1.474,-0.532,-0.309,-0.344,-0.096,-0.003,-0.219,0.31,0.714,-0.191
'0:00.264',1.032,2.002,0.97,-1.517,0.03,1.486,-0.532,-0.316,-0.34,-0.088,0,-0.213,0.314,0.719,-0.189
'0:00.265',1.035,2.005,0.971,-1.52,0.032,1.488,-0.537,-0.316,-0.328,-0.075,0.009,-0.207,0.322,0.722,-0.184
'0:00.266',1.026,1.986,0.962,-1.506,0.032,1.474,-0.534,-0.309,-0.316,-0.07,0.011,-0.204,0.321,0.708,-0.181
'0:00.267',1.027,1.982,0.956,-1.505,0.035,1.47,-0.531,-0.317,-0.315,-0.071,0.009,-0.205,0.319,0.698,-0.183
'0:00.268',1.03,1.985,0.956,-1.508,0.036,1.47,-0.526,-0.324,-0.317,-0.083,-0.002,-0.216,0.309,0.699,-0.185
'0:00.269',1.032,1.99,0.959,-1.512,0.036,1.475,-0.52,-0.317,-0.308,-0.093,-0.011,-0.22,0.301,0.709,-0.189
'0:00.270',1.029,1.996,0.967,-1.513,0.031,1.482,-0.522,-0.306,-0.295,-0.093,-0.013,-0.222,0.302,0.713,-0.185
'0:00.271',1.037,2.002,0.966,-1.52,0.035,1.484,-0.53,-0.296,-0.289,-0.093,-0.011,-0.219,0.306,0.712,-0.18
'0:00.272',1.048,2.004,0.957,-1.526,0.045,1.481,-0.53,-0.297,-0.293,-0.097,-0.013,-0.22,0.308,0.715,-0.177
'0:00.273',1.046,2.006,0.96,-1.526,0.043,1.483,-0.537,-0.3,-0.309,-0.112,-0.024,-0.232,0.298,0.723,-0.178
'0:00.274',1.042,2.002,0.962,-1.522,0.04,1.482,-0.538,-0.295,-0.322,-0.116,-0.025,-0.231,0.299,0.721,-0.184
'0:00.275',1.024,2.002,0.978,-1.514,0.023,1.49,-0.518,-0.295,-0.325,-0.11,-0.019,-0.226,0.301,0.714,-0.188
'0:00.276',1.022,2.007,0.986,-1.516,0.018,1.497,-0.518,-0.303,-0.337,-0.111,-0.018,-0.225,0.304,0.723,-0.184
'0:00.277',1.026,2.003,0.978,-1.516,0.024,1.491,-0.528,-0.315,-0.348,-0.112,-0.018,-0.224,0.308,0.721,-0.183
'0:00.278',1.018,1.998,0.981,-1.508,0.018,1.489,-0.531,-0.314,-0.344,-0.104,-0.013,-0.221,0.312,0.716,-0.182
'0:00.279',1.014,1.988,0.975,-1.502,0.019,1.482,-0.533,-0.305,-0.34,-0.095,-0.008,-0.218,0.319,0.715,-0.181
'0:00.280',1.014,1.981,0.967,-1.498,0.024,1.474,-0.538,-0.299,-0.331,-0.088,-0.009,-0.222,0.32,0.711,-0.182
'0:00.281',1.014,1.987,0.973,-1.502,0.021,1.48,-0.533,-0.285,-0.297,-0.061,0.006,-0.213,0.328,0.713,-0.186
'0:00.282',1.023,1.996,0.974,-1.51,0.024,1.486,-0.525,-0.281,-0.27,-0.042,0.019,-0.204,0.338,0.714,-0.19
'0:00.283',1.031,2.006,0.976,-1.519,0.027,1.492,-0.524,-0.281,-0.268,-0.049,0.015,-0.206,0.33,0.714,-0.188
'0:00.284',1.042,2.027,0.986,-1.535,0.028,1.506,-0.524,-0.269,-0.266,-0.048,0.021,-0.2,0.331,0.722,-0.19
'0:00.285',1.033,2.025,0.992,-1.529,0.02,1.508,-0.527,-0.266,-0.272,-0.053,0.021,-0.202,0.329,0.723,-0.188
'0:00.286',1.024,2.014,0.991,-1.52,0.017,1.503,-0.53,-0.274,-0.283,-0.061,0.013,-0.206,0.324,0.722,-0.184
'0:00.287',1.036,2.017,0.982,-1.526,0.027,1.5,-0.535,-0.283,-0.293,-0.068,0.011,-0.207,0.326,0.722,-0.181
'0:00.288',1.034,2.018,0.984,-1.526,0.025,1.501,-0.537,-0.29,-0.296,-0.07,0.006,-0.211,0.324,0.718,-0.184
'0:00.289',1.034,2.024,0.99,-1.53,0.022,1.507,-0.537,-0.295,-0.298,-0.066,0.009,-0.207,0.326,0.724,-0.19
'0:00.290',1.036,2.019,0.984,-1.528,0.026,1.502,-0.538,-0.3,-0.305,-0.069,0.011,-0.206,0.331,0.726,-0.189
'0:00.291',1.056,2.033,0.977,-1.545,0.04,1.505,-0.531,-0.293,-0.3,-0.061,0.021,-0.198,0.339,0.734,-0.19
'0:00.292',1.069,2.045,0.977,-1.558,0.046,1.511,-0.526,-0.287,-0.295,-0.057,0.025,-0.195,0.342,0.735,-0.193
'0:00.293',1.06,2.041,0.981,-1.551,0.04,1.512,-0.524,-0.282,-0.293,-0.056,0.025,-0.196,0.344,0.736,-0.195
'0:00.294',1.057,2.037,0.98,-1.548,0.038,1.509,-0.525,-0.28,-0.291,-0.054,0.029,-0.188,0.353,0.738,-0.193
'0:00.295',1.057,2.034,0.977,-1.546,0.04,1.506,-0.527,-0.273,-0.282,-0.059,0.025,-0.194,0.351,0.73,-0.19
'0:00.296',1.065,2.038,0.973,-1.552,0.046,1.505,-0.528,-0.258,-0.265,-0.056,0.024,-0.196,0.359,0.732,-0.194
'0:00.297',1.071,2.035,0.966,-1.554,0.052,1.501,-0.533,-0.259,-0.265,-0.059,0.022,-0.195,0.367,0.731,-0.193
'0:00.298',1.071,2.037,0.967,-1.554,0.052,1.502,-0.528,-0.255,-0.265,-0.056,0.025,-0.191,0.365,0.731,-0.193
'0:00.299',1.064,2.039,0.976,-1.552,0.044,1.508,-0.52,-0.252,-0.261,-0.056,0.021,-0.191,0.362,0.736,-0.203
'0:00.300',1.065,2.042,0.978,-1.554,0.043,1.51,-0.519,-0.257,-0.264,-0.061,0.012,-0.2,0.357,0.736,-0.21
'0:00.301',1.07,2.052,0.983,-1.562,0.043,1.518,-0.509,-0.256,-0.263,-0.058,0.015,-0.195,0.353,0.741,-0.216
'0:00.302',1.067,2.063,0.996,-1.566,0.035,1.53,-0.496,-0.251,-0.262,-0.056,0.018,-0.193,0.349,0.745,-0.213
'0:00.303',1.077,2.072,0.996,-1.575,0.041,1.534,-0.493,-0.249,-0.263,-0.057,0.019,-0.191,0.352,0.754,-0.207
'0:00.304',1.09,2.08,0.991,-1.585,0.05,1.536,-0.484,-0.246,-0.262,-0.051,0.022,-0.188,0.353,0.758,-0.211
'0:00.305',1.083,2.073,0.991,-1.578,0.045,1.532,-0.48,-0.24,-0.26,-0.043,0.025,-0.187,0.353,0.753,-0.213
'0:00.306',1.083,2.066,0.983,-1.575,0.05,1.524,-0.493,-0.243,-0.267,-0.046,0.025,-0.189,0.354,0.764,-0.206
'0:00.307',1.092,2.071,0.979,-1.582,0.057,1.525,-0.497,-0.244,-0.272,-0.053,0.019,-0.194,0.35,0.763,-0.197
'0:00.308',1.095,2.077,0.983,-1.587,0.056,1.53,-0.493,-0.244,-0.273,-0.049,0.025,-0.19,0.355,0.76,-0.198
'0:00.309',1.093,2.079,0.987,-1.586,0.052,1.534,-0.488,-0.234,-0.265,-0.038,0.035,-0.184,0.36,0.763,-0.2
'0:00.310',1.089,2.08,0.991,-1.585,0.049,1.536,-0.477,-0.226,-0.267,-0.033,0.041,-0.178,0.364,0.76,-0.201
'0:00.311',1.089,2.094,1.005,-1.592,0.042,1.55,-0.468,-0.227,-0.263,-0.018,0.056,-0.166,0.373,0.766,-0.211
'0:00.312',1.095,2.093,0.999,-1.595,0.048,1.546,-0.474,-0.236,-0.256,-0.009,0.058,-0.164,0.381,0.767,-0.212
'0:00.313',1.11,2.091,0.983,-1.601,0.064,1.538,-0.483,-0.243,-0.251,-0.004,0.06,-0.162,0.39,0.763,-0.207
'0:00.314',1.091,2.092,1.002,-1.591,0.044,1.547,-0.478,-0.239,-0.234,0.009,0.069,-0.158,0.387,0.767,-0.21
'0:00.315',1.076,2.089,1.014,-1.583,0.031,1.552,-0.481,-0.251,-0.232,0.008,0.063,-0.163,0.382,0.778,-0.209
'0:00.316',1.095,2.092,0.998,-1.594,0.048,1.545,-0.486,-0.272,-0.232,0.011,0.065,-0.16,0.391,0.782,-0.204
'0:00.317',1.091,2.091,1.002,-1.591,0.044,1.546,-0.485,-0.281,-0.225,0.02,0.078,-0.147,0.402,0.78,-0.203
'0:00.318',1.089,2.101,1.012,-1.595,0.038,1.557,-0.488,-0.274,-0.218,0.019,0.078,-0.143,0.401,0.782,-0.204
'0:00.319',1.103,2.106,1.004,-1.604,0.049,1.555,-0.5,-0.251,-0.212,0.016,0.072,-0.146,0.399,0.783,-0.201
'0:00.320',1.114,2.108,0.995,-1.611,0.059,1.552,-0.516,-0.212,-0.202,0.02,0.077,-0.143,0.399,0.773,-0.197
'0:00.321',1.126,2.119,0.994,-1.623,0.066,1.556,-0.517,-0.183,-0.193,0.025,0.082,-0.14,0.398,0.774,-0.197
'0:00.322',1.119,2.113,0.995,-1.616,0.062,1.554,-0.522,-0.189,-0.201,0.018,0.076,-0.146,0.396,0.775,-0.195
'0:00.323',1.105,2.093,0.988,-1.599,0.059,1.541,-0.53,-0.204,-0.213,0.013,0.072,-0.153,0.396,0.766,-0.197
'0:00.324',1.103,2.081,0.979,-1.593,0.061,1.53,-0.532,-0.215,-0.221,0.01,0.072,-0.151,0.402,0.758,-0.195
'0:00.325',1.102,2.074,0.972,-1.589,0.065,1.524,-0.538,-0.228,-0.231,-0.004,0.065,-0.154,0.402,0.751,-0.19
'0:00.326',1.097,2.07,0.973,-1.584,0.062,1.522,-0.543,-0.242,-0.243,-0.016,0.053,-0.16,0.397,0.753,-0.185
'0:00.327',1.098,2.07,0.972,-1.584,0.062,1.521,-0.544,-0.253,-0.252,-0.024,0.05,-0.163,0.397,0.753,-0.178
'0:00.328',1.099,2.067,0.97,-1.583,0.065,1.519,-0.548,-0.261,-0.255,-0.025,0.051,-0.162,0.396,0.757,-0.175
'0:00.329',1.101,2.074,0.973,-1.588,0.064,1.524,-0.552,-0.257,-0.252,-0.024,0.052,-0.159,0.398,0.754,-0.172
'0:00.330',1.109,2.088,0.979,-1.599,0.065,1.534,-0.549,-0.247,-0.242,-0.013,0.064,-0.148,0.404,0.763,-0.171
'0:00.331',1.102,2.095,0.994,-1.599,0.054,1.544,-0.547,-0.245,-0.242,-0.011,0.065,-0.147,0.398,0.779,-0.173
'0:00.332',1.096,2.094,0.998,-1.595,0.049,1.546,-0.546,-0.245,-0.256,-0.021,0.056,-0.158,0.388,0.78,-0.173
'0:00.333',1.105,2.098,0.994,-1.601,0.055,1.546,-0.545,-0.252,-0.265,-0.029,0.058,-0.153,0.391,0.784,-0.166
'0:00.334',1.109,2.098,0.989,-1.603,0.06,1.543,-0.545,-0.259,-0.275,-0.036,0.053,-0.154,0.385,0.788,-0.157
'0:00.335',1.107,2.091,0.986,-1.599,0.06,1.538,-0.544,-0.254,-0.276,-0.036,0.051,-0.158,0.384,0.783,-0.151
'0:00.336',1.099,2.087,0.989,-1.593,0.055,1.538,-0.544,-0.26,-0.275,-0.035,0.054,-0.155,0.388,0.781,-0.152
'0:00.337',1.101,2.088,0.988,-1.595,0.057,1.538,-0.541,-0.271,-0.275,-0.033,0.055,-0.156,0.389,0.785,-0.153
'0:00.338',1.107,2.094,0.987,-1.6,0.059,1.54,-0.538,-0.281,-0.274,-0.026,0.059,-0.155,0.389,0.783,-0.154
'0:00.339',1.115,2.098,0.983,-1.607,0.066,1.541,-0.539,-0.294,-0.279,-0.028,0.059,-0.156,0.387,0.784,-0.152
'0:00.340',1.115,2.098,0.983,-1.607,0.066,1.54,-0.547,-0.301,-0.281,-0.024,0.061,-0.154,0.394,0.785,-0.147
'0:00.341',1.124,2.102,0.979,-1.613,0.072,1.54,-0.558,-0.317,-0.29,-0.033,0.06,-0.153,0.4,0.789,-0.142
'0:00.342',1.123,2.108,0.986,-1.616,0.069,1.548,-0.565,-0.314,-0.288,-0.033,0.063,-0.148,0.401,0.792,-0.144
'0:00.343',1.093,2.095,1.003,-1.595,0.044,1.55,-0.568,-0.293,-0.275,-0.023,0.07,-0.143,0.399,0.787,-0.146
'0:00.344',1.086,2.075,0.99,-1.581,0.048,1.533,-0.574,-0.298,-0.282,-0.035,0.059,-0.153,0.388,0.779,-0.141
'0:00.345',1.089,2.061,0.973,-1.575,0.058,1.517,-0.584,-0.305,-0.296,-0.05,0.045,-0.165,0.376,0.766,-0.14
'0:00.346',1.093,2.062,0.971,-1.578,0.06,1.517,-0.585,-0.304,-0.303,-0.058,0.04,-0.168,0.368,0.763,-0.135
'0:00.347',1.087,2.057,0.972,-1.573,0.058,1.514,-0.582,-0.314,-0.314,-0.068,0.034,-0.171,0.365,0.76,-0.13
'0:00.348',1.081,2.043,0.964,-1.562,0.059,1.504,-0.592,-0.33,-0.329,-0.08,0.026,-0.176,0.364,0.75,-0.122
'0:00.349',1.079,2.038,0.959,-1.559,0.059,1.498,-0.598,-0.342,-0.339,-0.087,0.023,-0.18,0.36,0.746,-0.117
'0:00.350',1.075,2.027,0.954,-1.552,0.06,1.491,-0.599,-0.35,-0.343,-0.089,0.022,-0.179,0.358,0.74,-0.12
'0:00.351',1.087,2.036,0.949,-1.562,0.069,1.492,-0.596,-0.344,-0.336,-0.082,0.03,-0.169,0.366,0.742,-0.125
'0:00.352',1.099,2.045,0.947,-1.573,0.076,1.496,-0.586,-0.34,-0.331,-0.08,0.029,-0.172,0.364,0.742,-0.132
'0:00.353',1.109,2.044,0.936,-1.577,0.086,1.49,-0.58,-0.341,-0.33,-0.079,0.025,-0.178,0.364,0.732,-0.138
'0:00.354',1.105,2.043,0.938,-1.575,0.084,1.49,-0.576,-0.333,-0.324,-0.073,0.026,-0.178,0.367,0.73,-0.141
'0:00.355',1.092,2.031,0.94,-1.562,0.076,1.486,-0.567,-0.312,-0.312,-0.067,0.025,-0.179,0.363,0.726,-0.142
'0:00.356',1.089,2.031,0.943,-1.561,0.073,1.488,-0.558,-0.298,-0.306,-0.065,0.025,-0.177,0.363,0.723,-0.144
'0:00.357',1.095,2.03,0.935,-1.563,0.08,1.482,-0.558,-0.296,-0.312,-0.076,0.021,-0.18,0.365,0.722,-0.145
'0:00.358',1.1,2.024,0.924,-1.562,0.087,1.474,-0.555,-0.292,-0.312,-0.08,0.022,-0.177,0.369,0.717,-0.147
'0:00.359',1.095,2.025,0.931,-1.56,0.082,1.478,-0.548,-0.29,-0.312,-0.082,0.024,-0.176,0.367,0.72,-0.153
'0:00.360',1.083,2.021,0.938,-1.553,0.073,1.48,-0.545,-0.292,-0.319,-0.087,0.019,-0.18,0.361,0.724,-0.16
'0:00.361',1.084,2.029,0.945,-1.557,0.07,1.487,-0.54,-0.289,-0.322,-0.087,0.02,-0.18,0.359,0.73,-0.163
'0:00.362',1.089,2.028,0.94,-1.559,0.074,1.484,-0.536,-0.299,-0.326,-0.086,0.025,-0.176,0.359,0.732,-0.163
'0:00.363',1.086,2.019,0.933,-1.553,0.076,1.476,-0.533,-0.311,-0.328,-0.092,0.018,-0.18,0.355,0.727,-0.164
'0:00.364',1.073,2.024,0.952,-1.549,0.06,1.488,-0.522,-0.304,-0.31,-0.094,0.018,-0.18,0.35,0.732,-0.17
'0:00.365',1.062,2.029,0.967,-1.546,0.048,1.498,-0.517,-0.301,-0.295,-0.089,0.025,-0.175,0.349,0.741,-0.173
'0:00.366',1.065,2.023,0.959,-1.545,0.053,1.492,-0.524,-0.307,-0.3,-0.096,0.021,-0.175,0.35,0.735,-0.174
'0:00.367',1.067,2.018,0.953,-1.543,0.057,1.486,-0.535,-0.315,-0.315,-0.106,0.017,-0.176,0.352,0.733,-0.167
'0:00.368',1.058,2.02,0.963,-1.54,0.047,1.492,-0.549,-0.312,-0.325,-0.11,0.011,-0.184,0.347,0.742,-0.158
'0:00.369',1.06,2.023,0.965,-1.542,0.047,1.494,-0.559,-0.308,-0.329,-0.11,0.011,-0.186,0.348,0.742,-0.152
'0:00.370',1.06,2.021,0.96,-1.54,0.05,1.49,-0.557,-0.314,-0.337,-0.107,0.012,-0.184,0.352,0.741,-0.153
'0:00.371',1.05,2.013,0.964,-1.532,0.043,1.489,-0.554,-0.317,-0.344,-0.102,0.015,-0.182,0.352,0.736,-0.161
'0:00.372',1.048,2.012,0.964,-1.53,0.042,1.488,-0.559,-0.321,-0.354,-0.1,0.015,-0.181,0.352,0.734,-0.16
'0:00.373',1.039,2.002,0.964,-1.521,0.037,1.483,-0.56,-0.34,-0.371,-0.108,0.005,-0.191,0.345,0.727,-0.155
'0:00.374',1.033,1.99,0.958,-1.512,0.037,1.474,-0.571,-0.352,-0.378,-0.11,0.004,-0.194,0.347,0.715,-0.144
'0:00.375',1.042,1.99,0.948,-1.516,0.047,1.469,-0.579,-0.349,-0.369,-0.102,0.006,-0.193,0.346,0.709,-0.137
'0:00.376',1.055,1.992,0.938,-1.524,0.059,1.465,-0.582,-0.35,-0.351,-0.092,0.007,-0.193,0.34,0.705,-0.131
'0:00.377',1.068,2.002,0.935,-1.536,0.066,1.469,-0.585,-0.333,-0.321,-0.078,0.013,-0.189,0.342,0.706,-0.13
'0:00.378',1.063,2.009,0.947,-1.537,0.059,1.478,-0.575,-0.329,-0.314,-0.078,0.014,-0.189,0.339,0.711,-0.135
'0:00.379',1.055,2.005,0.951,-1.53,0.052,1.478,-0.581,-0.344,-0.32,-0.081,0.006,-0.196,0.336,0.715,-0.139
'0:00.380',1.043,1.996,0.954,-1.52,0.044,1.476,-0.579,-0.349,-0.315,-0.076,0.001,-0.204,0.33,0.715,-0.152
'0:00.381',1.028,1.99,0.963,-1.51,0.033,1.476,-0.569,-0.351,-0.311,-0.071,0.003,-0.206,0.324,0.712,-0.163
'0:00.382',1.024,1.986,0.963,-1.505,0.03,1.474,-0.564,-0.349,-0.317,-0.076,-0.001,-0.207,0.318,0.705,-0.161
'0:00.383',1.031,1.984,0.953,-1.508,0.038,1.468,-0.565,-0.337,-0.316,-0.083,-0.001,-0.206,0.316,0.702,-0.157
'0:00.384',1.034,1.983,0.949,-1.51,0.043,1.466,-0.576,-0.315,-0.308,-0.082,-0.001,-0.207,0.316,0.7,-0.154
'0:00.385',1.028,1.975,0.948,-1.502,0.04,1.462,-0.579,-0.314,-0.317,-0.09,-0.009,-0.215,0.305,0.701,-0.154
'0:00.386',1.024,1.975,0.951,-1.5,0.036,1.463,-0.576,-0.315,-0.318,-0.092,-0.01,-0.215,0.302,0.708,-0.159
'0:00.387',1.024,1.988,0.964,-1.506,0.03,1.476,-0.57,-0.305,-0.314,-0.089,-0.009,-0.215,0.301,0.715,-0.166
'0:00.388',1.022,1.993,0.971,-1.508,0.025,1.482,-0.562,-0.308,-0.317,-0.088,-0.011,-0.217,0.3,0.713,-0.167
'0:00.389',1.016,1.99,0.976,-1.504,0.02,1.484,-0.558,-0.321,-0.323,-0.089,-0.013,-0.222,0.296,0.716,-0.168
'0:00.390',1.016,1.986,0.971,-1.502,0.022,1.479,-0.564,-0.334,-0.333,-0.099,-0.02,-0.228,0.293,0.716,-0.167
'0:00.391',1.025,1.979,0.955,-1.502,0.035,1.467,-0.571,-0.334,-0.342,-0.11,-0.029,-0.236,0.293,0.71,-0.158
'0:00.392',1.038,1.978,0.941,-1.508,0.048,1.46,-0.58,-0.318,-0.335,-0.104,-0.026,-0.236,0.294,0.709,-0.16
'0:00.393',1.032,1.978,0.947,-1.505,0.042,1.462,-0.581,-0.306,-0.325,-0.097,-0.021,-0.234,0.295,0.699,-0.168
'0:00.394',1.022,1.98,0.958,-1.502,0.032,1.469,-0.566,-0.303,-0.315,-0.093,-0.021,-0.233,0.295,0.701,-0.172
'0:00.395',1.02,1.978,0.959,-1.5,0.031,1.468,-0.556,-0.299,-0.307,-0.09,-0.019,-0.23,0.296,0.701,-0.174
'0:00.396',1.02,1.98,0.962,-1.501,0.029,1.471,-0.55,-0.296,-0.312,-0.092,-0.015,-0.224,0.3,0.7,-0.175
'0:00.397',1.009,1.991,0.983,-1.5,0.013,1.488,-0.542,-0.293,-0.312,-0.086,-0.006,-0.214,0.303,0.715,-0.18
'0:00.398',0.985,1.986,1.002,-1.486,-0.009,1.494,-0.54,-0.309,-0.328,-0.094,-0.011,-0.219,0.296,0.718,-0.178
'0:00.399',0.995,1.986,0.992,-1.491,0.001,1.49,-0.537,-0.33,-0.343,-0.102,-0.017,-0.22,0.296,0.711,-0.174
'0:00.400',1.004,1.976,0.973,-1.491,0.015,1.475,-0.54,-0.34,-0.346,-0.102,-0.015,-0.218,0.3,0.707,-0.175
'0:00.401',0.996,1.96,0.965,-1.478,0.015,1.463,-0.545,-0.354,-0.351,-0.104,-0.018,-0.224,0.296,0.701,-0.173
'0:00.402',1.003,1.957,0.955,-1.48,0.024,1.456,-0.548,-0.365,-0.355,-0.108,-0.022,-0.226,0.299,0.693,-0.166
'0:00.403',1.002,1.956,0.955,-1.48,0.023,1.456,-0.547,-0.358,-0.351,-0.111,-0.027,-0.231,0.302,0.701,-0.167
'0:00.404',0.999,1.964,0.966,-1.482,0.017,1.466,-0.548,-0.35,-0.342,-0.106,-0.025,-0.231,0.304,0.706,-0.174
'0:00.405',1.012,1.972,0.961,-1.492,0.025,1.467,-0.553,-0.344,-0.342,-0.104,-0.022,-0.229,0.31,0.7,-0.172
'0:00.406',1.019,1.975,0.956,-1.498,0.031,1.466,-0.555,-0.334,-0.344,-0.108,-0.027,-0.231,0.312,0.701,-0.169
'0:00.407',1.022,1.98,0.958,-1.502,0.032,1.469,-0.558,-0.325,-0.332,-0.101,-0.024,-0.227,0.32,0.704,-0.166
'0:00.408',1.008,1.982,0.974,-1.496,0.018,1.478,-0.548,-0.313,-0.316,-0.086,-0.012,-0.219,0.322,0.704,-0.168
'0:00.409',1.01,1.99,0.98,-1.5,0.015,1.485,-0.535,-0.305,-0.307,-0.079,-0.007,-0.215,0.317,0.71,-0.174
'0:00.410',1.03,1.996,0.967,-1.513,0.031,1.482,-0.538,-0.306,-0.308,-0.081,-0.009,-0.215,0.317,0.709,-0.174
'0:00.411',1.025,1.986,0.962,-1.506,0.032,1.474,-0.549,-0.317,-0.321,-0.091,-0.015,-0.219,0.316,0.697,-0.172
'0:00.412',1.026,1.984,0.957,-1.506,0.035,1.47,-0.559,-0.327,-0.339,-0.108,-0.025,-0.227,0.31,0.697,-0.169
'0:00.413',1.018,1.974,0.957,-1.496,0.03,1.465,-0.564,-0.325,-0.346,-0.115,-0.03,-0.234,0.303,0.703,-0.169
'0:00.414',1.001,1.964,0.963,-1.482,0.018,1.464,-0.565,-0.314,-0.34,-0.111,-0.026,-0.235,0.3,0.702,-0.173
'0:00.415',1,1.96,0.96,-1.48,0.02,1.46,-0.572,-0.316,-0.344,-0.115,-0.028,-0.24,0.296,0.697,-0.17
'0:00.416',1,1.954,0.955,-1.478,0.022,1.454,-0.575,-0.326,-0.351,-0.117,-0.028,-0.241,0.3,0.694,-0.169
'0:00.417',1.008,1.962,0.954,-1.486,0.027,1.458,-0.568,-0.33,-0.35,-0.115,-0.025,-0.238,0.301,0.694,-0.173
'0:00.418',1.002,1.969,0.967,-1.486,0.018,1.468,-0.563,-0.336,-0.354,-0.117,-0.029,-0.244,0.293,0.697,-0.172
'0:00.419',0.999,1.974,0.976,-1.486,0.011,1.475,-0.544,-0.336,-0.353,-0.118,-0.032,-0.247,0.283,0.698,-0.172
'0:00.420',1.015,1.98,0.966,-1.498,0.025,1.473,-0.533,-0.332,-0.351,-0.114,-0.028,-0.243,0.286,0.696,-0.18
'0:00.421',1.016,1.986,0.97,-1.502,0.023,1.478,-0.528,-0.334,-0.348,-0.11,-0.024,-0.239,0.29,0.702,-0.187
'0:00.422',1.018,1.986,0.968,-1.503,0.025,1.477,-0.519,-0.335,-0.343,-0.103,-0.018,-0.236,0.287,0.699,-0.189
'0:00.423',1.018,1.986,0.969,-1.502,0.025,1.478,-0.515,-0.331,-0.336,-0.09,-0.012,-0.23,0.29,0.695,-0.189
'0:00.424',1.012,1.985,0.974,-1.499,0.019,1.48,-0.517,-0.331,-0.333,-0.088,-0.011,-0.23,0.289,0.71,-0.188
'0:00.425',1.014,1.98,0.967,-1.498,0.024,1.474,-0.526,-0.323,-0.33,-0.086,-0.011,-0.23,0.29,0.711,-0.188
'0:00.426',1.013,1.978,0.966,-1.496,0.024,1.472,-0.529,-0.323,-0.335,-0.089,-0.012,-0.232,0.291,0.702,-0.19
'0:00.427',1.009,1.973,0.965,-1.492,0.022,1.469,-0.53,-0.341,-0.344,-0.102,-0.02,-0.237,0.285,0.695,-0.189
'0:00.428',1.01,1.97,0.961,-1.49,0.025,1.466,-0.532,-0.347,-0.346,-0.105,-0.022,-0.235,0.286,0.692,-0.184
'0:00.429',1.003,1.97,0.967,-1.486,0.018,1.468,-0.528,-0.342,-0.339,-0.101,-0.015,-0.229,0.286,0.697,-0.184
'0:00.430',0.998,1.976,0.978,-1.488,0.009,1.477,-0.527,-0.333,-0.333,-0.096,-0.015,-0.231,0.284,0.697,-0.184
'0:00.431',1.005,1.974,0.969,-1.49,0.018,1.472,-0.534,-0.332,-0.34,-0.104,-0.027,-0.24,0.282,0.697,-0.18
'0:00.432',1.005,1.972,0.967,-1.488,0.019,1.469,-0.538,-0.33,-0.338,-0.104,-0.026,-0.238,0.287,0.699,-0.181
'0:00.433',1.002,1.976,0.974,-1.49,0.014,1.476,-0.535,-0.32,-0.334,-0.101,-0.023,-0.235,0.293,0.7,-0.188
'0:00.434',0.998,1.976,0.978,-1.487,0.009,1.477,-0.533,-0.311,-0.329,-0.098,-0.021,-0.235,0.292,0.701,-0.191
'0:00.435',0.997,1.972,0.975,-1.485,0.011,1.474,-0.54,-0.294,-0.319,-0.094,-0.014,-0.231,0.294,0.7,-0.188
'0:00.436',1.006,1.97,0.964,-1.489,0.021,1.468,-0.542,-0.28,-0.314,-0.103,-0.018,-0.232,0.291,0.701,-0.183
'0:00.437',1.013,1.97,0.957,-1.492,0.028,1.464,-0.536,-0.282,-0.314,-0.112,-0.028,-0.237,0.285,0.7,-0.186
'0:00.438',1,1.966,0.967,-1.484,0.017,1.466,-0.535,-0.288,-0.317,-0.122,-0.037,-0.242,0.281,0.698,-0.19
'0:00.439',0.998,1.969,0.972,-1.484,0.013,1.47,-0.532,-0.296,-0.322,-0.124,-0.035,-0.24,0.28,0.701,-0.196
'0:00.440',1.018,1.978,0.96,-1.498,0.029,1.469,-0.528,-0.303,-0.328,-0.122,-0.028,-0.233,0.284,0.705,-0.198
'0:00.441',1.023,1.983,0.96,-1.504,0.032,1.472,-0.528,-0.31,-0.338,-0.126,-0.033,-0.237,0.282,0.703,-0.195
'0:00.442',1.018,1.982,0.966,-1.501,0.026,1.474,-0.524,-0.31,-0.347,-0.13,-0.038,-0.243,0.277,0.703,-0.193
'0:00.443',1.008,1.982,0.975,-1.496,0.016,1.478,-0.512,-0.294,-0.348,-0.136,-0.035,-0.239,0.274,0.707,-0.196
'0:00.444',0.995,1.977,0.983,-1.486,0.005,1.48,-0.51,-0.292,-0.361,-0.151,-0.049,-0.252,0.264,0.708,-0.195
'0:00.445',0.999,1.972,0.973,-1.486,0.013,1.472,-0.514,-0.297,-0.375,-0.164,-0.059,-0.258,0.259,0.705,-0.194
'0:00.446',1.012,1.971,0.96,-1.492,0.025,1.466,-0.513,-0.297,-0.371,-0.16,-0.049,-0.247,0.267,0.701,-0.198
'0:00.447',1.008,1.97,0.963,-1.489,0.022,1.466,-0.514,-0.295,-0.367,-0.161,-0.048,-0.251,0.262,0.699,-0.2
'0:00.448',1.001,1.97,0.969,-1.486,0.016,1.47,-0.518,-0.3,-0.364,-0.16,-0.05,-0.254,0.263,0.703,-0.197
'0:00.449',0.997,1.972,0.976,-1.485,0.011,1.474,-0.511,-0.31,-0.362,-0.157,-0.044,-0.252,0.267,0.704,-0.199
'0:00.450',1.002,1.974,0.972,-1.488,0.015,1.472,-0.501,-0.315,-0.364,-0.154,-0.036,-0.244,0.274,0.706,-0.201
'0:00.451',1.007,1.975,0.969,-1.492,0.018,1.472,-0.5,-0.333,-0.369,-0.147,-0.029,-0.237,0.28,0.71,-0.204
'0:00.452',0.997,1.978,0.982,-1.488,0.007,1.48,-0.496,-0.355,-0.385,-0.141,-0.025,-0.238,0.275,0.712,-0.209
'0:00.453',0.998,1.976,0.979,-1.488,0.009,1.478,-0.5,-0.364,-0.393,-0.134,-0.02,-0.239,0.276,0.706,-0.204
'0:00.454',0.998,1.966,0.969,-1.483,0.015,1.468,-0.513,-0.364,-0.391,-0.13,-0.024,-0.243,0.278,0.696,-0.197
'0:00.455',0.993,1.961,0.969,-1.478,0.012,1.465,-0.52,-0.351,-0.38,-0.121,-0.024,-0.243,0.277,0.699,-0.193
'0:00.456',0.993,1.964,0.973,-1.479,0.01,1.468,-0.513,-0.333,-0.349,-0.095,-0.012,-0.235,0.281,0.698,-0.193
'0:00.457',0.995,1.968,0.974,-1.482,0.01,1.471,-0.512,-0.337,-0.33,-0.084,-0.018,-0.24,0.281,0.698,-0.192
'0:00.458',0.985,1.958,0.973,-1.472,0.005,1.466,-0.508,-0.329,-0.312,-0.077,-0.028,-0.251,0.278,0.696,-0.195
'0:00.459',0.97,1.939,0.97,-1.454,-0.001,1.454,-0.496,-0.292,-0.28,-0.062,-0.029,-0.255,0.278,0.682,-0.21
'0:00.460',0.975,1.929,0.956,-1.452,0.009,1.442,-0.499,-0.256,-0.264,-0.061,-0.041,-0.267,0.271,0.674,-0.217
'0:00.461',0.977,1.921,0.945,-1.45,0.015,1.433,-0.488,-0.23,-0.256,-0.068,-0.056,-0.281,0.261,0.667,-0.218
'0:00.462',0.961,1.911,0.95,-1.436,0.005,1.431,-0.45,-0.205,-0.243,-0.076,-0.076,-0.299,0.245,0.661,-0.233
'0:00.463',0.948,1.901,0.954,-1.425,-0.004,1.428,-0.406,-0.151,-0.22,-0.074,-0.095,-0.318,0.228,0.657,-0.254
'0:00.464',0.938,1.892,0.956,-1.415,-0.009,1.424,-0.358,-0.087,-0.189,-0.07,-0.116,-0.344,0.207,0.655,-0.281
'0:00.465',0.941,1.903,0.962,-1.422,-0.011,1.432,-0.302,-0.017,-0.145,-0.048,-0.121,-0.356,0.192,0.656,-0.316
'0:00.466',0.943,1.909,0.967,-1.427,-0.012,1.438,-0.253,0.062,-0.09,-0.019,-0.12,-0.361,0.188,0.658,-0.352
'0:00.467',0.944,1.907,0.964,-1.425,-0.011,1.435,-0.215,0.121,-0.052,-0.007,-0.131,-0.377,0.185,0.657,-0.38
'0:00.468',0.952,1.918,0.967,-1.435,-0.007,1.442,-0.193,0.163,-0.021,0.013,-0.125,-0.376,0.192,0.656,-0.399
'0:00.469',0.949,1.935,0.987,-1.442,-0.019,1.462,-0.173,0.203,0.016,0.036,-0.113,-0.37,0.197,0.67,-0.417
'0:00.470',0.953,1.956,1.003,-1.455,-0.025,1.48,-0.138,0.254,0.055,0.06,-0.096,-0.361,0.201,0.688,-0.436
'0:00.471',0.943,1.952,1.01,-1.448,-0.034,1.48,-0.102,0.309,0.091,0.081,-0.088,-0.359,0.204,0.687,-0.464
'0:00.472',0.929,1.946,1.017,-1.438,-0.044,1.482,-0.079,0.337,0.114,0.093,-0.09,-0.365,0.2,0.687,-0.487
'0:00.473',0.929,1.955,1.026,-1.442,-0.049,1.491,-0.064,0.349,0.134,0.111,-0.083,-0.364,0.199,0.7,-0.505
'0:00.474',0.936,1.97,1.035,-1.454,-0.05,1.503,-0.047,0.366,0.167,0.147,-0.059,-0.351,0.215,0.709,-0.524
'0:00.475',0.955,1.99,1.036,-1.473,-0.041,1.513,-0.051,0.355,0.193,0.189,-0.023,-0.325,0.243,0.721,-0.533
'0:00.476',0.972,2.017,1.046,-1.494,-0.037,1.532,-0.074,0.316,0.202,0.22,0.009,-0.3,0.27,0.742,-0.538
'0:00.477',0.986,2.05,1.065,-1.518,-0.04,1.558,-0.097,0.284,0.213,0.259,0.059,-0.264,0.305,0.757,-0.546
'0:00.478',1.007,2.074,1.067,-1.541,-0.03,1.571,-0.135,0.251,0.229,0.309,0.121,-0.215,0.355,0.774,-0.545
'0:00.479',1.04,2.103,1.063,-1.571,-0.012,1.583,-0.188,0.204,0.24,0.359,0.18,-0.166,0.406,0.798,-0.534
'0:00.480',1.078,2.133,1.056,-1.606,0.011,1.595,-0.264,0.117,0.228,0.392,0.24,-0.112,0.457,0.815,-0.511
'0:00.481',1.131,2.171,1.041,-1.651,0.044,1.606,-0.349,0.016,0.217,0.436,0.319,-0.044,0.526,0.831,-0.487
'0:00.482',1.185,2.213,1.028,-1.699,0.078,1.621,-0.423,-0.058,0.217,0.488,0.398,0.023,0.594,0.856,-0.469
'0:00.483',1.242,2.256,1.014,-1.75,0.114,1.636,-0.52,-0.143,0.205,0.533,0.478,0.097,0.667,0.878,-0.437
'0:00.484',1.3,2.3,1,-1.8,0.149,1.651,-0.627,-0.242,0.183,0.581,0.567,0.176,0.745,0.895,-0.398
'0:00.485',1.332,2.32,0.988,-1.825,0.172,1.654,-0.718,-0.356,0.129,0.593,0.628,0.234,0.803,0.906,-0.354
'0:00.486',1.379,2.334,0.955,-1.857,0.212,1.645,-0.803,-0.463,0.08,0.612,0.696,0.297,0.871,0.912,-0.311
'0:00.487',1.425,2.344,0.918,-1.885,0.254,1.631,-0.878,-0.546,0.059,0.661,0.786,0.373,0.943,0.911,-0.281
'0:00.488',1.452,2.342,0.889,-1.897,0.281,1.616,-0.968,-0.633,0.034,0.705,0.865,0.44,1.008,0.905,-0.239
'0:00.489',1.49,2.345,0.855,-1.917,0.318,1.6,-1.062,-0.719,0.008,0.742,0.933,0.498,1.069,0.901,-0.192
'0:00.490',1.532,2.36,0.828,-1.946,0.352,1.594,-1.163,-0.811,-0.028,0.763,0.991,0.555,1.124,0.905,-0.139
'0:00.491',1.589,2.393,0.804,-1.991,0.392,1.599,-1.258,-0.898,-0.057,0.793,1.061,0.624,1.188,0.927,-0.091
'0:00.492',1.623,2.424,0.8,-2.023,0.411,1.612,-1.323,-0.987,-0.106,0.794,1.111,0.675,1.226,0.949,-0.048
'0:00.493',1.636,2.435,0.799,-2.035,0.418,1.617,-1.413,-1.117,-0.199,0.759,1.139,0.715,1.256,0.96,0.011
'0:00.494',1.649,2.447,0.798,-2.049,0.426,1.623,-1.502,-1.232,-0.257,0.764,1.191,0.771,1.306,0.974,0.057
'0:00.495',1.654,2.505,0.851,-2.08,0.402,1.678,-1.577,-1.337,-0.301,0.781,1.246,0.827,1.342,1.02,0.091
'0:00.496',1.67,2.557,0.886,-2.114,0.392,1.722,-1.649,-1.427,-0.348,0.787,1.292,0.875,1.375,1.06,0.128
'0:00.497',1.673,2.576,0.904,-2.124,0.385,1.74,-1.708,-1.492,-0.379,0.799,1.333,0.914,1.406,1.079,0.159
'0:00.498',1.66,2.603,0.943,-2.131,0.358,1.773,-1.768,-1.579,-0.427,0.802,1.371,0.952,1.429,1.109,0.194
'0:00.499',1.653,2.628,0.975,-2.142,0.34,1.802,-1.815,-1.661,-0.481,0.79,1.395,0.981,1.44,1.137,0.227
'0:00.500',1.646,2.683,1.038,-2.165,0.304,1.861,-1.847,-1.71,-0.508,0.784,1.401,0.993,1.442,1.181,0.246
'0:00.501',1.629,2.705,1.076,-2.167,0.277,1.891,-1.871,-1.714,-0.521,0.774,1.397,0.998,1.446,1.206,0.264
'0:00.502',1.62,2.667,1.048,-2.144,0.286,1.858,-1.861,-1.679,-0.51,0.762,1.376,0.992,1.433,1.186,0.272
'0:00.503',1.615,2.583,0.967,-2.099,0.324,1.775,-1.839,-1.655,-0.52,0.709,1.302,0.948,1.394,1.113,0.299
'0:00.504',1.603,2.461,0.858,-2.033,0.373,1.659,-1.838,-1.651,-0.571,0.614,1.198,0.886,1.344,1.015,0.349
'0:00.505',1.584,2.386,0.802,-1.986,0.391,1.595,-1.836,-1.691,-0.659,0.488,1.086,0.823,1.275,0.962,0.395
'0:00.506',1.527,2.338,0.811,-1.933,0.358,1.575,-1.841,-1.758,-0.773,0.343,0.968,0.751,1.189,0.933,0.444
'0:00.507',1.467,2.276,0.808,-1.871,0.33,1.542,-1.839,-1.767,-0.838,0.24,0.871,0.686,1.118,0.898,0.476
'0:00.508',1.421,2.217,0.795,-1.819,0.313,1.507,-1.837,-1.794,-0.93,0.103,0.752,0.609,1.04,0.858,0.521
'0:00.509',1.362,2.162,0.8,-1.762,0.281,1.482,-1.829,-1.839,-1.06,-0.079,0.603,0.51,0.936,0.827,0.568
'0:00.510',1.304,2.107,0.803,-1.706,0.251,1.455,-1.801,-1.857,-1.172,-0.246,0.467,0.419,0.834,0.801,0.598
'0:00.511',1.246,2.058,0.813,-1.653,0.216,1.436,-1.774,-1.884,-1.294,-0.423,0.336,0.334,0.738,0.769,0.628
'0:00.512',1.188,1.997,0.81,-1.593,0.188,1.404,-1.744,-1.938,-1.48,-0.678,0.165,0.232,0.617,0.726,0.671
'0:00.513',1.129,1.942,0.814,-1.536,0.158,1.378,-1.725,-2.01,-1.685,-0.953,-0.015,0.122,0.489,0.695,0.724
'0:00.514',1.087,1.92,0.834,-1.504,0.127,1.377,-1.688,-2.025,-1.774,-1.092,-0.131,0.042,0.397,0.686,0.739
'0:00.515',1.063,1.899,0.836,-1.482,0.114,1.367,-1.636,-1.986,-1.776,-1.129,-0.187,-0.007,0.342,0.669,0.731
'0:00.516',1.038,1.868,0.831,-1.453,0.103,1.349,-1.585,-1.919,-1.727,-1.113,-0.215,-0.04,0.312,0.645,0.703
'0:00.517',1.022,1.833,0.81,-1.428,0.105,1.322,-1.524,-1.833,-1.656,-1.079,-0.244,-0.075,0.284,0.622,0.666
'0:00.518',1.014,1.801,0.787,-1.407,0.113,1.294,-1.474,-1.749,-1.594,-1.048,-0.273,-0.117,0.257,0.601,0.64
'0:00.519',1.004,1.799,0.795,-1.401,0.104,1.297,-1.421,-1.657,-1.522,-1.002,-0.278,-0.14,0.244,0.603,0.594
'0:00.520',0.995,1.804,0.809,-1.4,0.092,1.307,-1.373,-1.579,-1.458,-0.956,-0.277,-0.157,0.237,0.608,0.552
'0:00.521',0.991,1.802,0.811,-1.397,0.09,1.306,-1.331,-1.509,-1.391,-0.904,-0.268,-0.167,0.242,0.602,0.519
'0:00.522',0.987,1.808,0.821,-1.397,0.083,1.315,-1.282,-1.425,-1.315,-0.847,-0.252,-0.17,0.251,0.609,0.476
'0:00.523',0.984,1.813,0.831,-1.399,0.076,1.323,-1.229,-1.34,-1.246,-0.795,-0.243,-0.181,0.25,0.614,0.431
'0:00.524',0.986,1.821,0.836,-1.404,0.074,1.329,-1.182,-1.26,-1.18,-0.745,-0.23,-0.187,0.252,0.616,0.393
'0:00.525',0.998,1.833,0.835,-1.416,0.082,1.334,-1.151,-1.2,-1.125,-0.701,-0.217,-0.194,0.26,0.621,0.363
'0:00.526',1.004,1.839,0.836,-1.421,0.084,1.337,-1.107,-1.131,-1.056,-0.646,-0.199,-0.194,0.273,0.621,0.326
'0:00.527',1.003,1.844,0.842,-1.424,0.081,1.343,-1.044,-1.038,-0.965,-0.583,-0.179,-0.198,0.278,0.617,0.276
'0:00.528',1.004,1.848,0.845,-1.426,0.079,1.347,-0.991,-0.956,-0.886,-0.533,-0.165,-0.202,0.285,0.624,0.234
'0:00.529',1.004,1.863,0.861,-1.434,0.071,1.362,-0.942,-0.885,-0.822,-0.488,-0.143,-0.196,0.296,0.642,0.196
'0:00.530',1.015,1.873,0.859,-1.444,0.078,1.366,-0.898,-0.832,-0.776,-0.454,-0.127,-0.194,0.306,0.646,0.161
'0:00.531',1.009,1.875,0.866,-1.442,0.071,1.371,-0.856,-0.772,-0.73,-0.416,-0.112,-0.188,0.314,0.646,0.128
'0:00.532',1.014,1.897,0.883,-1.456,0.065,1.391,-0.806,-0.716,-0.685,-0.385,-0.101,-0.189,0.315,0.662,0.09
'0:00.533',1.012,1.899,0.887,-1.456,0.062,1.393,-0.777,-0.681,-0.662,-0.37,-0.103,-0.201,0.308,0.665,0.065
'0:00.534',1.007,1.903,0.896,-1.456,0.056,1.399,-0.744,-0.638,-0.629,-0.345,-0.102,-0.21,0.298,0.662,0.037
'0:00.535',1.026,1.922,0.896,-1.474,0.065,1.409,-0.698,-0.583,-0.592,-0.315,-0.092,-0.213,0.295,0.665,0.005
'0:00.536',1.023,1.923,0.9,-1.473,0.061,1.411,-0.67,-0.531,-0.562,-0.295,-0.088,-0.218,0.291,0.663,-0.017
'0:00.537',1.033,1.938,0.904,-1.486,0.064,1.421,-0.65,-0.488,-0.539,-0.287,-0.087,-0.224,0.288,0.675,-0.035
'0:00.538',1.032,1.945,0.914,-1.488,0.059,1.429,-0.628,-0.447,-0.509,-0.274,-0.084,-0.226,0.287,0.686,-0.055
'0:00.539',1.015,1.941,0.926,-1.478,0.044,1.434,-0.606,-0.407,-0.471,-0.251,-0.066,-0.216,0.295,0.688,-0.079
'0:00.540',1.009,1.937,0.928,-1.474,0.04,1.433,-0.581,-0.394,-0.457,-0.24,-0.062,-0.218,0.293,0.686,-0.097
'0:00.541',1.007,1.933,0.926,-1.47,0.04,1.429,-0.56,-0.384,-0.446,-0.23,-0.071,-0.23,0.286,0.685,-0.113
'0:00.542',1.014,1.943,0.929,-1.479,0.042,1.437,-0.54,-0.368,-0.428,-0.213,-0.065,-0.228,0.286,0.696,-0.134
'0:00.543',1.006,1.95,0.943,-1.478,0.032,1.446,-0.52,-0.361,-0.42,-0.2,-0.058,-0.229,0.283,0.701,-0.148
'0:00.544',1.018,1.958,0.94,-1.488,0.038,1.449,-0.507,-0.368,-0.411,-0.181,-0.044,-0.222,0.291,0.702,-0.161
'0:00.545',1.028,1.964,0.935,-1.496,0.046,1.45,-0.5,-0.367,-0.401,-0.163,-0.029,-0.212,0.298,0.704,-0.169
'0:00.546',1.018,1.96,0.942,-1.489,0.037,1.451,-0.501,-0.344,-0.387,-0.145,-0.021,-0.212,0.303,0.704,-0.176
'0:00.547',1.018,1.959,0.941,-1.489,0.038,1.45,-0.52,-0.326,-0.373,-0.135,-0.023,-0.217,0.308,0.702,-0.176
'0:00.548',1.018,1.955,0.938,-1.486,0.04,1.446,-0.529,-0.301,-0.353,-0.122,-0.025,-0.221,0.307,0.691,-0.175
'0:00.549',1.016,1.958,0.943,-1.488,0.036,1.451,-0.518,-0.286,-0.336,-0.113,-0.022,-0.223,0.306,0.688,-0.176
'0:00.550',1.02,1.97,0.95,-1.496,0.035,1.46,-0.504,-0.281,-0.323,-0.106,-0.024,-0.226,0.302,0.696,-0.178
'0:00.551',1.026,1.97,0.945,-1.499,0.041,1.458,-0.497,-0.265,-0.297,-0.094,-0.021,-0.226,0.304,0.694,-0.182
'0:00.552',1.026,1.971,0.945,-1.5,0.041,1.458,-0.496,-0.249,-0.274,-0.079,-0.018,-0.224,0.309,0.692,-0.185
'0:00.553',1.019,1.97,0.953,-1.496,0.033,1.462,-0.497,-0.248,-0.273,-0.077,-0.022,-0.229,0.305,0.696,-0.187
'0:00.554',1.012,1.975,0.963,-1.494,0.024,1.469,-0.497,-0.251,-0.28,-0.081,-0.019,-0.227,0.305,0.703,-0.187
'0:00.555',1.008,1.978,0.971,-1.493,0.018,1.474,-0.49,-0.249,-0.282,-0.077,-0.014,-0.223,0.305,0.712,-0.193
'0:00.556',1.005,1.968,0.964,-1.487,0.021,1.466,-0.498,-0.252,-0.29,-0.086,-0.028,-0.234,0.299,0.708,-0.192
'0:00.557',1.016,1.97,0.954,-1.493,0.03,1.462,-0.509,-0.248,-0.284,-0.086,-0.029,-0.234,0.302,0.698,-0.185
'0:00.558',1.029,1.972,0.944,-1.501,0.042,1.458,-0.496,-0.235,-0.269,-0.071,-0.018,-0.225,0.307,0.694,-0.188
'0:00.559',1.033,1.98,0.948,-1.506,0.043,1.464,-0.478,-0.224,-0.254,-0.058,-0.013,-0.222,0.303,0.696,-0.2
'0:00.560',1.034,1.986,0.951,-1.51,0.042,1.468,-0.479,-0.211,-0.244,-0.052,-0.013,-0.221,0.301,0.7,-0.203
'0:00.561',1.03,1.984,0.955,-1.507,0.037,1.47,-0.489,-0.2,-0.24,-0.054,-0.016,-0.222,0.302,0.704,-0.202
'0:00.562',1.028,1.99,0.961,-1.51,0.034,1.476,-0.489,-0.197,-0.245,-0.064,-0.022,-0.228,0.296,0.705,-0.203
'0:00.563',1.028,1.986,0.959,-1.507,0.034,1.472,-0.48,-0.192,-0.251,-0.069,-0.024,-0.228,0.296,0.704,-0.207
'0:00.564',1.016,1.978,0.964,-1.498,0.025,1.472,-0.476,-0.185,-0.247,-0.064,-0.019,-0.224,0.299,0.703,-0.211
'0:00.565',1.008,1.978,0.972,-1.494,0.018,1.476,-0.47,-0.18,-0.247,-0.065,-0.019,-0.226,0.297,0.707,-0.215
'0:00.566',1.01,1.978,0.97,-1.495,0.02,1.474,-0.463,-0.182,-0.248,-0.068,-0.021,-0.23,0.295,0.707,-0.218
'0:00.567',1.007,1.975,0.969,-1.492,0.019,1.472,-0.46,-0.19,-0.252,-0.07,-0.025,-0.236,0.29,0.708,-0.221
'0:00.568',1.004,1.98,0.978,-1.492,0.013,1.48,-0.45,-0.186,-0.243,-0.066,-0.025,-0.238,0.287,0.709,-0.229
'0:00.569',1.014,1.986,0.972,-1.5,0.021,1.479,-0.447,-0.183,-0.235,-0.061,-0.021,-0.233,0.292,0.702,-0.23
'0:00.570',1.012,1.975,0.964,-1.494,0.024,1.47,-0.45,-0.191,-0.242,-0.067,-0.024,-0.238,0.288,0.701,-0.227
'0:00.571',1.014,1.97,0.957,-1.492,0.029,1.464,-0.448,-0.196,-0.245,-0.066,-0.022,-0.238,0.287,0.705,-0.23
'0:00.572',1.032,1.976,0.945,-1.504,0.043,1.46,-0.449,-0.184,-0.239,-0.059,-0.015,-0.231,0.297,0.696,-0.229
'0:00.573',1.03,1.976,0.947,-1.504,0.042,1.462,-0.451,-0.162,-0.232,-0.056,-0.016,-0.234,0.295,0.695,-0.228
'0:00.574',1.019,1.97,0.952,-1.495,0.034,1.461,-0.455,-0.147,-0.226,-0.055,-0.021,-0.24,0.29,0.699,-0.228
'0:00.575',1.017,1.974,0.958,-1.496,0.029,1.466,-0.452,-0.137,-0.221,-0.047,-0.018,-0.235,0.293,0.708,-0.229
'0:00.576',1.016,1.978,0.962,-1.498,0.027,1.47,-0.448,-0.141,-0.216,-0.04,-0.011,-0.229,0.297,0.711,-0.229
'0:00.577',1.008,1.973,0.966,-1.491,0.021,1.47,-0.446,-0.156,-0.218,-0.043,-0.013,-0.232,0.296,0.702,-0.234
'0:00.578',1.009,1.983,0.975,-1.496,0.018,1.479,-0.442,-0.163,-0.215,-0.045,-0.015,-0.233,0.299,0.711,-0.238
'0:00.579',1.014,1.995,0.982,-1.504,0.015,1.488,-0.432,-0.166,-0.209,-0.044,-0.011,-0.23,0.304,0.718,-0.243
'0:00.580',1.012,1.992,0.981,-1.503,0.015,1.487,-0.43,-0.168,-0.207,-0.041,-0.004,-0.222,0.312,0.716,-0.244
'0:00.581',1.012,1.99,0.978,-1.502,0.018,1.484,-0.432,-0.172,-0.209,-0.041,-0.005,-0.224,0.313,0.72,-0.239
'0:00.582',1.014,1.983,0.97,-1.498,0.021,1.476,-0.44,-0.168,-0.215,-0.046,-0.015,-0.233,0.31,0.711,-0.234
'0:00.583',1.016,1.975,0.959,-1.496,0.029,1.467,-0.454,-0.154,-0.223,-0.054,-0.022,-0.237,0.312,0.702,-0.225
'0:00.584',1.016,1.974,0.959,-1.496,0.029,1.466,-0.456,-0.151,-0.227,-0.056,-0.025,-0.244,0.309,0.705,-0.227
'0:00.585',1.014,1.974,0.961,-1.494,0.026,1.468,-0.455,-0.146,-0.228,-0.049,-0.021,-0.24,0.316,0.705,-0.228
'0:00.586',1.012,1.975,0.964,-1.494,0.024,1.47,-0.451,-0.141,-0.229,-0.048,-0.017,-0.235,0.319,0.708,-0.229
'0:00.587',1.01,1.979,0.97,-1.496,0.021,1.474,-0.443,-0.142,-0.228,-0.051,-0.014,-0.233,0.323,0.713,-0.234
'0:00.588',1.012,1.978,0.967,-1.495,0.022,1.472,-0.443,-0.143,-0.226,-0.052,-0.011,-0.23,0.332,0.711,-0.234
'0:00.589',1.028,1.981,0.953,-1.505,0.037,1.467,-0.437,-0.143,-0.225,-0.052,-0.006,-0.225,0.33,0.701,-0.237
'0:00.590',1.042,1.986,0.945,-1.515,0.049,1.466,-0.426,-0.136,-0.217,-0.046,0.004,-0.213,0.331,0.702,-0.239
'0:00.591',1.03,1.976,0.947,-1.504,0.042,1.462,-0.42,-0.133,-0.209,-0.045,-0.001,-0.221,0.323,0.705,-0.24
'0:00.592',1.026,1.97,0.945,-1.498,0.041,1.458,-0.413,-0.134,-0.221,-0.051,-0.007,-0.23,0.316,0.704,-0.24
'0:00.593',1.038,1.99,0.953,-1.514,0.043,1.472,-0.405,-0.134,-0.231,-0.049,-0.001,-0.221,0.321,0.716,-0.242
'0:00.594',1.048,2.012,0.966,-1.53,0.041,1.489,-0.401,-0.135,-0.239,-0.047,0.004,-0.217,0.321,0.721,-0.247
'0:00.595',1.034,2.006,0.973,-1.521,0.03,1.49,-0.401,-0.136,-0.24,-0.038,0.013,-0.212,0.322,0.719,-0.251
'0:00.596',1.034,2.006,0.974,-1.52,0.03,1.49,-0.404,-0.144,-0.235,-0.034,0.019,-0.206,0.324,0.719,-0.251
'0:00.597',1.04,2.004,0.965,-1.522,0.037,1.484,-0.411,-0.16,-0.246,-0.045,0.007,-0.215,0.318,0.716,-0.247
'0:00.598',1.028,1.988,0.962,-1.508,0.033,1.475,-0.422,-0.162,-0.238,-0.041,0.003,-0.222,0.314,0.714,-0.244
'0:00.599',1.026,1.981,0.956,-1.504,0.035,1.469,-0.428,-0.149,-0.213,-0.029,0.01,-0.213,0.32,0.706,-0.239
'0:00.600',1.036,1.978,0.944,-1.508,0.045,1.462,-0.432,-0.154,-0.205,-0.025,0.011,-0.213,0.325,0.704,-0.239
'0:00.601',1.038,1.978,0.94,-1.508,0.049,1.459,-0.43,-0.153,-0.199,-0.025,0.007,-0.216,0.322,0.709,-0.239
'0:00.602',1.03,1.979,0.949,-1.505,0.041,1.464,-0.428,-0.126,-0.188,-0.024,0.006,-0.216,0.319,0.707,-0.241
'0:00.603',1.034,1.986,0.954,-1.51,0.04,1.47,-0.433,-0.095,-0.178,-0.016,0.011,-0.213,0.323,0.709,-0.245
'0:00.604',1.038,1.986,0.949,-1.513,0.044,1.468,-0.433,-0.084,-0.185,-0.017,0.014,-0.21,0.327,0.71,-0.247
'0:00.605',1.032,1.986,0.954,-1.51,0.039,1.47,-0.422,-0.093,-0.195,-0.022,0.011,-0.211,0.325,0.712,-0.252
'0:00.606',1.034,1.99,0.956,-1.512,0.038,1.473,-0.412,-0.092,-0.189,-0.02,0.011,-0.211,0.324,0.712,-0.253
'0:00.607',1.041,1.984,0.943,-1.512,0.049,1.464,-0.412,-0.096,-0.19,-0.022,0.007,-0.212,0.325,0.701,-0.25
'0:00.608',1.042,1.98,0.939,-1.512,0.051,1.46,-0.416,-0.102,-0.197,-0.025,0.006,-0.212,0.325,0.701,-0.249
'0:00.609',1.044,1.986,0.942,-1.516,0.051,1.464,-0.421,-0.105,-0.196,-0.022,0.008,-0.212,0.328,0.701,-0.247
'0:00.610',1.036,1.988,0.953,-1.512,0.042,1.471,-0.428,-0.119,-0.197,-0.025,0.003,-0.218,0.328,0.706,-0.247
'0:00.611',1.028,1.986,0.959,-1.508,0.034,1.473,-0.426,-0.128,-0.2,-0.027,-0.004,-0.224,0.326,0.716,-0.247
'0:00.612',1.034,1.986,0.953,-1.511,0.041,1.47,-0.42,-0.127,-0.192,-0.022,-0.002,-0.223,0.331,0.712,-0.248
'0:00.613',1.03,1.994,0.964,-1.512,0.033,1.479,-0.41,-0.106,-0.17,-0.009,0.004,-0.22,0.331,0.714,-0.254
'0:00.614',1.022,2.001,0.979,-1.512,0.021,1.49,-0.406,-0.086,-0.15,-0.005,0.002,-0.223,0.326,0.722,-0.254
'0:00.615',1.03,2.007,0.979,-1.519,0.025,1.493,-0.408,-0.082,-0.142,-0.004,0.005,-0.219,0.33,0.721,-0.253
'0:00.616',1.04,2.013,0.973,-1.528,0.034,1.494,-0.408,-0.075,-0.142,-0.004,0.009,-0.216,0.329,0.721,-0.254
'0:00.617',1.038,2.009,0.972,-1.524,0.033,1.49,-0.415,-0.076,-0.151,-0.011,0.001,-0.222,0.325,0.722,-0.252
'0:00.618',1.04,2.009,0.97,-1.524,0.035,1.49,-0.417,-0.084,-0.166,-0.019,-0.002,-0.225,0.324,0.721,-0.251
'0:00.619',1.037,2.003,0.967,-1.52,0.035,1.485,-0.416,-0.088,-0.172,-0.018,0.004,-0.221,0.326,0.717,-0.253
'0:00.620',1.036,2.002,0.966,-1.52,0.035,1.484,-0.416,-0.085,-0.172,-0.011,0.009,-0.215,0.331,0.72,-0.251
'0:00.621',1.042,2.006,0.964,-1.524,0.039,1.485,-0.42,-0.081,-0.172,-0.009,0.013,-0.215,0.333,0.721,-0.251
'0:00.622',1.035,1.999,0.965,-1.518,0.035,1.482,-0.425,-0.081,-0.176,-0.006,0.015,-0.214,0.33,0.717,-0.253
'0:00.623',1.047,2.007,0.961,-1.528,0.043,1.484,-0.416,-0.076,-0.172,0.002,0.019,-0.211,0.333,0.719,-0.255
'0:00.624',1.05,2.006,0.957,-1.528,0.046,1.482,-0.413,-0.075,-0.169,0.005,0.021,-0.212,0.331,0.716,-0.259
'0:00.625',1.058,2.007,0.951,-1.533,0.053,1.479,-0.413,-0.07,-0.163,0.006,0.023,-0.211,0.334,0.716,-0.258
'0:00.626',1.069,2.014,0.947,-1.542,0.06,1.481,-0.41,-0.055,-0.14,0.02,0.026,-0.209,0.343,0.721,-0.258
'0:00.627',1.058,2.01,0.953,-1.534,0.052,1.482,-0.406,-0.047,-0.13,0.024,0.026,-0.209,0.344,0.721,-0.261
'0:00.628',1.048,2.01,0.963,-1.53,0.043,1.486,-0.398,-0.042,-0.127,0.022,0.026,-0.209,0.343,0.723,-0.264
'0:00.629',1.044,2.007,0.965,-1.526,0.039,1.486,-0.394,-0.038,-0.126,0.022,0.023,-0.213,0.337,0.726,-0.267
'0:00.630',1.053,2.014,0.962,-1.534,0.045,1.488,-0.378,-0.029,-0.123,0.028,0.032,-0.205,0.339,0.728,-0.272
'0:00.631',1.058,2.015,0.957,-1.538,0.051,1.486,-0.374,-0.028,-0.128,0.028,0.035,-0.203,0.342,0.724,-0.274
'0:00.632',1.06,2.008,0.949,-1.534,0.056,1.478,-0.381,-0.029,-0.14,0.012,0.017,-0.217,0.335,0.718,-0.269
'0:00.633',1.073,2.004,0.932,-1.539,0.07,1.468,-0.384,-0.021,-0.143,0.001,0.006,-0.224,0.334,0.717,-0.269
'0:00.634',1.068,1.996,0.928,-1.532,0.069,1.462,-0.392,-0.022,-0.143,-0.003,0.003,-0.225,0.334,0.713,-0.271
'0:00.635',1.056,1.992,0.936,-1.524,0.059,1.464,-0.39,-0.025,-0.138,0.002,0.005,-0.224,0.333,0.713,-0.272
'0:00.636',1.052,1.979,0.928,-1.516,0.061,1.454,-0.394,-0.036,-0.137,0.008,0.01,-0.22,0.337,0.708,-0.268
'0:00.637',1.04,1.979,0.94,-1.51,0.05,1.46,-0.386,-0.032,-0.123,0.029,0.029,-0.203,0.348,0.71,-0.27
'0:00.638',1.046,1.992,0.947,-1.519,0.049,1.47,-0.377,-0.037,-0.124,0.033,0.035,-0.195,0.353,0.719,-0.272
'0:00.639',1.05,1.989,0.939,-1.52,0.055,1.464,-0.38,-0.056,-0.141,0.019,0.025,-0.204,0.348,0.716,-0.27
'0:00.640',1.044,1.988,0.945,-1.517,0.05,1.466,-0.371,-0.053,-0.14,0.024,0.03,-0.201,0.344,0.718,-0.273
'0:00.641',1.058,2.008,0.951,-1.534,0.053,1.48,-0.367,-0.036,-0.123,0.035,0.04,-0.192,0.351,0.722,-0.277
'0:00.642',1.07,2.03,0.961,-1.55,0.054,1.496,-0.361,-0.013,-0.11,0.044,0.045,-0.189,0.355,0.73,-0.277
'0:00.643',1.065,2.022,0.957,-1.544,0.054,1.49,-0.373,0.003,-0.103,0.046,0.043,-0.192,0.357,0.728,-0.269
'0:00.644',1.064,2.013,0.949,-1.539,0.058,1.481,-0.384,0.021,-0.086,0.056,0.044,-0.191,0.366,0.723,-0.269
'0:00.645',1.068,2.019,0.952,-1.544,0.058,1.486,-0.372,0.029,-0.075,0.063,0.049,-0.186,0.366,0.731,-0.272
'0:00.646',1.063,2.021,0.959,-1.542,0.052,1.49,-0.368,0.021,-0.076,0.066,0.049,-0.186,0.367,0.733,-0.271
'0:00.647',1.06,2.017,0.958,-1.539,0.051,1.488,-0.367,0.01,-0.081,0.062,0.047,-0.188,0.369,0.731,-0.273
'0:00.648',1.067,2.014,0.948,-1.541,0.059,1.481,-0.364,0.018,-0.071,0.068,0.053,-0.183,0.375,0.726,-0.277
'0:00.649',1.06,2.012,0.953,-1.536,0.053,1.482,-0.362,0.032,-0.059,0.077,0.056,-0.181,0.378,0.726,-0.278
'0:00.650',1.061,2.011,0.951,-1.536,0.054,1.482,-0.365,0.036,-0.056,0.075,0.052,-0.186,0.377,0.731,-0.279
'0:00.651',1.073,2.013,0.94,-1.544,0.067,1.477,-0.366,0.045,-0.051,0.079,0.056,-0.183,0.381,0.726,-0.28
'0:00.652',1.075,2.02,0.946,-1.548,0.065,1.483,-0.362,0.051,-0.046,0.082,0.062,-0.177,0.383,0.724,-0.283
'0:00.653',1.072,2.027,0.956,-1.55,0.058,1.492,-0.361,0.059,-0.044,0.085,0.063,-0.177,0.378,0.733,-0.286
'0:00.654',1.074,2.027,0.954,-1.552,0.06,1.491,-0.36,0.069,-0.042,0.085,0.059,-0.183,0.369,0.737,-0.288
'0:00.655',1.089,2.034,0.945,-1.562,0.071,1.49,-0.355,0.074,-0.043,0.086,0.065,-0.178,0.373,0.732,-0.288
'0:00.656',1.085,2.029,0.944,-1.558,0.071,1.486,-0.358,0.08,-0.044,0.083,0.063,-0.177,0.378,0.727,-0.289
'0:00.657',1.079,2.025,0.947,-1.552,0.066,1.486,-0.354,0.082,-0.042,0.076,0.057,-0.182,0.372,0.728,-0.292
'0:00.658',1.077,2.025,0.949,-1.552,0.064,1.487,-0.343,0.086,-0.038,0.07,0.052,-0.186,0.365,0.733,-0.293
'0:00.659',1.079,2.026,0.947,-1.554,0.066,1.487,-0.337,0.096,-0.028,0.072,0.051,-0.189,0.361,0.737,-0.299
'0:00.660',1.095,2.04,0.946,-1.568,0.074,1.494,-0.334,0.106,-0.015,0.081,0.059,-0.182,0.368,0.744,-0.307
'0:00.661',1.1,2.044,0.945,-1.573,0.077,1.494,-0.334,0.108,-0.017,0.076,0.058,-0.183,0.37,0.745,-0.307
'0:00.662',1.087,2.036,0.949,-1.562,0.069,1.493,-0.332,0.114,-0.018,0.077,0.061,-0.181,0.377,0.742,-0.305
'0:00.663',1.074,2.028,0.955,-1.552,0.059,1.492,-0.325,0.128,-0.018,0.084,0.069,-0.176,0.386,0.743,-0.308
'0:00.664',1.069,2.021,0.953,-1.546,0.058,1.487,-0.32,0.133,-0.028,0.079,0.066,-0.18,0.384,0.744,-0.311
'0:00.665',1.075,2.022,0.949,-1.549,0.062,1.486,-0.318,0.139,-0.031,0.081,0.067,-0.178,0.387,0.738,-0.311
'0:00.666',1.073,2.019,0.947,-1.546,0.064,1.483,-0.309,0.138,-0.028,0.085,0.07,-0.175,0.389,0.732,-0.315
'0:00.667',1.071,2.018,0.949,-1.545,0.06,1.484,-0.307,0.123,-0.029,0.087,0.07,-0.177,0.388,0.736,-0.317
'0:00.668',1.087,2.032,0.946,-1.56,0.07,1.49,-0.31,0.111,-0.026,0.091,0.075,-0.171,0.395,0.736,-0.312
'0:00.669',1.093,2.034,0.943,-1.564,0.074,1.488,-0.306,0.105,-0.015,0.098,0.078,-0.168,0.398,0.737,-0.312
'0:00.670',1.107,2.038,0.932,-1.573,0.086,1.486,-0.301,0.106,0.008,0.112,0.076,-0.17,0.398,0.742,-0.316
'0:00.671',1.115,2.041,0.926,-1.578,0.094,1.484,-0.3,0.11,0.016,0.114,0.074,-0.172,0.395,0.745,-0.319
'0:00.672',1.101,2.038,0.938,-1.57,0.081,1.488,-0.303,0.108,0.017,0.116,0.075,-0.175,0.391,0.745,-0.325
'0:00.673',1.104,2.046,0.944,-1.575,0.08,1.496,-0.311,0.145,0.037,0.132,0.082,-0.171,0.398,0.741,-0.327
'0:00.674',1.113,2.046,0.933,-1.58,0.089,1.49,-0.318,0.197,0.045,0.134,0.083,-0.17,0.402,0.744,-0.323
'0:00.675',1.107,2.045,0.938,-1.577,0.085,1.492,-0.325,0.219,0.042,0.137,0.091,-0.162,0.405,0.75,-0.32
'0:00.676',1.095,2.05,0.955,-1.573,0.07,1.502,-0.319,0.239,0.044,0.143,0.102,-0.153,0.408,0.754,-0.32
'0:00.677',1.095,2.046,0.952,-1.571,0.071,1.498,-0.304,0.232,0.035,0.138,0.096,-0.156,0.404,0.749,-0.324
'0:00.678',1.095,2.042,0.947,-1.569,0.074,1.495,-0.289,0.228,0.04,0.141,0.097,-0.158,0.404,0.747,-0.334
'0:00.679',1.097,2.042,0.946,-1.571,0.075,1.494,-0.272,0.239,0.059,0.16,0.107,-0.151,0.411,0.747,-0.343
'0:00.680',1.109,2.051,0.943,-1.581,0.083,1.497,-0.258,0.244,0.068,0.168,0.113,-0.146,0.416,0.75,-0.351
'0:00.681',1.119,2.062,0.944,-1.591,0.087,1.502,-0.251,0.246,0.07,0.168,0.116,-0.145,0.418,0.753,-0.354
'0:00.682',1.123,2.064,0.941,-1.594,0.091,1.503,-0.252,0.243,0.07,0.168,0.115,-0.145,0.422,0.752,-0.349
'0:00.683',1.127,2.067,0.942,-1.597,0.092,1.505,-0.255,0.253,0.085,0.172,0.114,-0.147,0.424,0.758,-0.348
'0:00.684',1.125,2.062,0.939,-1.594,0.092,1.501,-0.25,0.268,0.105,0.179,0.117,-0.145,0.427,0.759,-0.352
'0:00.685',1.123,2.062,0.939,-1.593,0.092,1.5,-0.237,0.273,0.114,0.184,0.123,-0.14,0.433,0.76,-0.357
'0:00.686',1.123,2.06,0.938,-1.592,0.093,1.499,-0.229,0.265,0.112,0.187,0.128,-0.135,0.439,0.764,-0.363
'0:00.687',1.119,2.059,0.941,-1.589,0.089,1.5,-0.228,0.259,0.117,0.196,0.132,-0.133,0.442,0.763,-0.367
'0:00.688',1.113,2.062,0.95,-1.588,0.082,1.506,-0.225,0.265,0.124,0.204,0.135,-0.131,0.448,0.769,-0.368
'0:00.689',1.113,2.061,0.949,-1.587,0.082,1.505,-0.228,0.286,0.135,0.217,0.144,-0.122,0.458,0.774,-0.368
'0:00.690',1.125,2.067,0.943,-1.597,0.09,1.506,-0.237,0.315,0.15,0.232,0.156,-0.111,0.469,0.771,-0.372
'0:00.691',1.137,2.072,0.936,-1.605,0.1,1.504,-0.238,0.324,0.157,0.236,0.158,-0.107,0.472,0.767,-0.371
'0:00.692',1.135,2.067,0.932,-1.601,0.101,1.5,-0.234,0.329,0.162,0.238,0.159,-0.107,0.473,0.766,-0.369
'0:00.693',1.149,2.078,0.929,-1.613,0.11,1.503,-0.235,0.336,0.175,0.247,0.168,-0.098,0.48,0.774,-0.37
'0:00.694',1.163,2.096,0.933,-1.63,0.116,1.514,-0.231,0.351,0.19,0.257,0.179,-0.087,0.483,0.782,-0.374
'0:00.695',1.161,2.1,0.94,-1.631,0.11,1.52,-0.226,0.372,0.197,0.26,0.182,-0.086,0.48,0.778,-0.378
'0:00.696',1.163,2.092,0.929,-1.627,0.116,1.511,-0.223,0.381,0.198,0.254,0.176,-0.089,0.48,0.767,-0.379
'0:00.697',1.161,2.08,0.92,-1.621,0.12,1.5,-0.216,0.391,0.201,0.25,0.175,-0.091,0.484,0.766,-0.383
'0:00.698',1.165,2.084,0.92,-1.625,0.122,1.502,-0.214,0.407,0.214,0.254,0.178,-0.089,0.49,0.77,-0.388
'0:00.699',1.179,2.099,0.92,-1.639,0.129,1.51,-0.207,0.424,0.225,0.261,0.184,-0.088,0.494,0.778,-0.396
'0:00.700',1.189,2.109,0.92,-1.649,0.134,1.515,-0.198,0.428,0.22,0.26,0.188,-0.086,0.497,0.789,-0.401
'0:00.701',1.193,2.104,0.912,-1.649,0.141,1.508,-0.192,0.426,0.216,0.259,0.19,-0.079,0.503,0.787,-0.405
'0:00.702',1.193,2.108,0.916,-1.651,0.138,1.512,-0.183,0.429,0.225,0.271,0.202,-0.069,0.511,0.79,-0.411
'0:00.703',1.196,2.118,0.921,-1.657,0.137,1.52,-0.18,0.426,0.234,0.279,0.204,-0.069,0.515,0.795,-0.413
'0:00.704',1.188,2.12,0.932,-1.654,0.128,1.526,-0.179,0.431,0.244,0.288,0.208,-0.07,0.516,0.797,-0.417
'0:00.705',1.177,2.127,0.951,-1.651,0.113,1.539,-0.175,0.442,0.258,0.306,0.223,-0.06,0.523,0.803,-0.419
'0:00.706',1.188,2.131,0.944,-1.66,0.122,1.538,-0.185,0.442,0.261,0.314,0.227,-0.058,0.53,0.803,-0.415
'0:00.707',1.191,2.127,0.936,-1.659,0.127,1.532,-0.199,0.437,0.259,0.316,0.229,-0.056,0.536,0.801,-0.414
'0:00.708',1.19,2.127,0.936,-1.659,0.127,1.532,-0.199,0.427,0.253,0.322,0.236,-0.05,0.542,0.807,-0.414
'0:00.709',1.195,2.135,0.94,-1.665,0.127,1.538,-0.2,0.421,0.262,0.338,0.244,-0.045,0.549,0.809,-0.416
'0:00.710',1.199,2.136,0.938,-1.668,0.131,1.537,-0.203,0.419,0.274,0.35,0.252,-0.038,0.558,0.809,-0.415
'0:00.711',1.208,2.143,0.935,-1.675,0.137,1.54,-0.206,0.429,0.283,0.36,0.262,-0.032,0.564,0.818,-0.415
'0:00.712',1.21,2.147,0.937,-1.679,0.137,1.542,-0.208,0.443,0.298,0.372,0.272,-0.025,0.571,0.817,-0.419
'0:00.713',1.212,2.15,0.938,-1.681,0.137,1.544,-0.213,0.45,0.305,0.374,0.273,-0.024,0.578,0.816,-0.421
'0:00.714',1.224,2.163,0.94,-1.694,0.142,1.552,-0.215,0.466,0.314,0.378,0.274,-0.023,0.587,0.822,-0.419
'0:00.715',1.228,2.157,0.929,-1.692,0.149,1.544,-0.212,0.474,0.318,0.383,0.279,-0.02,0.59,0.817,-0.418
'0:00.716',1.22,2.147,0.927,-1.684,0.146,1.538,-0.212,0.483,0.324,0.39,0.284,-0.015,0.589,0.814,-0.42
'0:00.717',1.236,2.159,0.923,-1.698,0.157,1.542,-0.213,0.489,0.325,0.393,0.291,-0.009,0.596,0.821,-0.415
'0:00.718',1.233,2.155,0.922,-1.694,0.155,1.538,-0.214,0.483,0.319,0.39,0.291,-0.009,0.598,0.82,-0.417
'0:00.719',1.219,2.144,0.926,-1.682,0.146,1.536,-0.211,0.487,0.322,0.392,0.291,-0.01,0.598,0.816,-0.425
'0:00.720',1.221,2.144,0.924,-1.683,0.148,1.534,-0.203,0.484,0.319,0.389,0.287,-0.013,0.597,0.819,-0.428
'0:00.721',1.223,2.15,0.927,-1.686,0.147,1.538,-0.195,0.493,0.329,0.396,0.291,-0.009,0.6,0.823,-0.436
'0:00.722',1.226,2.154,0.928,-1.69,0.149,1.541,-0.187,0.506,0.343,0.406,0.3,-0.005,0.604,0.829,-0.445
'0:00.723',1.222,2.149,0.928,-1.685,0.146,1.538,-0.189,0.509,0.34,0.405,0.301,-0.003,0.605,0.834,-0.443
'0:00.724',1.218,2.159,0.941,-1.688,0.139,1.55,-0.181,0.525,0.351,0.418,0.318,0.013,0.611,0.837,-0.443
'0:00.725',1.238,2.185,0.948,-1.711,0.144,1.567,-0.172,0.533,0.362,0.431,0.332,0.025,0.613,0.842,-0.446
'0:00.726',1.258,2.204,0.947,-1.73,0.155,1.575,-0.171,0.536,0.357,0.429,0.33,0.028,0.613,0.854,-0.445
'0:00.727',1.258,2.204,0.947,-1.732,0.156,1.575,-0.167,0.539,0.35,0.426,0.325,0.025,0.611,0.853,-0.446
'0:00.728',1.262,2.201,0.94,-1.732,0.162,1.571,-0.168,0.529,0.345,0.427,0.328,0.028,0.616,0.846,-0.447
'0:00.729',1.276,2.205,0.93,-1.74,0.172,1.568,-0.176,0.512,0.343,0.425,0.327,0.028,0.62,0.848,-0.446
'0:00.730',1.279,2.207,0.928,-1.743,0.175,1.568,-0.178,0.494,0.341,0.42,0.322,0.023,0.616,0.847,-0.447
'0:00.731',1.266,2.209,0.944,-1.738,0.162,1.577,-0.171,0.485,0.345,0.423,0.331,0.034,0.619,0.849,-0.447
'0:00.732',1.263,2.211,0.949,-1.737,0.157,1.58,-0.171,0.483,0.354,0.428,0.338,0.043,0.623,0.861,-0.445
'0:00.733',1.27,2.217,0.948,-1.744,0.161,1.583,-0.187,0.48,0.359,0.426,0.337,0.041,0.629,0.868,-0.442
'0:00.734',1.282,2.23,0.949,-1.756,0.167,1.59,-0.2,0.474,0.361,0.427,0.34,0.043,0.637,0.865,-0.44
'0:00.735',1.287,2.228,0.942,-1.758,0.172,1.585,-0.202,0.469,0.357,0.428,0.345,0.048,0.642,0.858,-0.443
'0:00.736',1.282,2.224,0.943,-1.754,0.17,1.583,-0.209,0.469,0.347,0.425,0.349,0.053,0.645,0.86,-0.441
'0:00.737',1.28,2.225,0.946,-1.752,0.167,1.586,-0.217,0.48,0.348,0.43,0.354,0.057,0.648,0.87,-0.442
'0:00.738',1.284,2.22,0.936,-1.752,0.173,1.578,-0.225,0.482,0.343,0.429,0.357,0.058,0.651,0.867,-0.441
'0:00.739',1.288,2.22,0.932,-1.754,0.177,1.577,-0.226,0.477,0.337,0.433,0.363,0.061,0.656,0.859,-0.438
'0:00.740',1.284,2.217,0.933,-1.75,0.175,1.575,-0.227,0.468,0.335,0.436,0.365,0.062,0.658,0.859,-0.436
'0:00.741',1.286,2.215,0.929,-1.75,0.178,1.573,-0.231,0.452,0.33,0.434,0.364,0.061,0.661,0.856,-0.432
'0:00.742',1.288,2.219,0.931,-1.754,0.178,1.575,-0.234,0.441,0.329,0.434,0.369,0.065,0.666,0.863,-0.43
'0:00.743',1.294,2.23,0.936,-1.762,0.178,1.583,-0.242,0.428,0.322,0.432,0.372,0.068,0.666,0.875,-0.426
'0:00.744',1.303,2.244,0.942,-1.774,0.18,1.593,-0.236,0.424,0.322,0.437,0.378,0.071,0.667,0.883,-0.425
'0:00.745',1.3,2.241,0.943,-1.77,0.178,1.592,-0.232,0.41,0.314,0.431,0.383,0.08,0.67,0.876,-0.427
'0:00.746',1.276,2.24,0.965,-1.758,0.155,1.602,-0.221,0.411,0.316,0.444,0.403,0.096,0.674,0.874,-0.429
'0:00.747',1.266,2.24,0.974,-1.752,0.145,1.607,-0.226,0.406,0.314,0.452,0.41,0.1,0.676,0.879,-0.427
'0:00.748',1.276,2.232,0.957,-1.754,0.16,1.595,-0.25,0.376,0.285,0.433,0.399,0.095,0.679,0.873,-0.418
'0:00.749',1.284,2.232,0.948,-1.758,0.168,1.59,-0.266,0.356,0.269,0.424,0.393,0.091,0.679,0.873,-0.409
'0:00.750',1.282,2.225,0.944,-1.753,0.169,1.585,-0.283,0.336,0.264,0.422,0.391,0.089,0.68,0.873,-0.4
'0:00.751',1.274,2.22,0.946,-1.747,0.164,1.583,-0.293,0.318,0.259,0.423,0.39,0.089,0.682,0.87,-0.398
'0:00.752',1.278,2.224,0.946,-1.75,0.166,1.585,-0.304,0.293,0.244,0.415,0.385,0.086,0.676,0.866,-0.396
'0:00.753',1.29,2.236,0.947,-1.763,0.171,1.591,-0.319,0.277,0.235,0.412,0.387,0.092,0.676,0.869,-0.387
'0:00.754',1.301,2.246,0.946,-1.774,0.177,1.596,-0.332,0.286,0.235,0.415,0.393,0.099,0.679,0.875,-0.381
'0:00.755',1.299,2.247,0.949,-1.773,0.175,1.598,-0.357,0.292,0.227,0.408,0.388,0.095,0.68,0.874,-0.373
'0:00.756',1.29,2.241,0.952,-1.766,0.169,1.597,-0.369,0.289,0.222,0.405,0.383,0.09,0.682,0.872,-0.369
'0:00.757',1.286,2.23,0.945,-1.758,0.171,1.587,-0.367,0.288,0.229,0.404,0.376,0.082,0.673,0.866,-0.37
'0:00.758',1.29,2.236,0.945,-1.763,0.172,1.591,-0.365,0.28,0.232,0.401,0.373,0.08,0.671,0.872,-0.367
'0:00.759',1.28,2.235,0.955,-1.758,0.163,1.595,-0.363,0.266,0.221,0.392,0.371,0.08,0.67,0.871,-0.365
'0:00.760',1.272,2.228,0.957,-1.75,0.158,1.593,-0.368,0.249,0.204,0.38,0.369,0.079,0.665,0.865,-0.36
'0:00.761',1.276,2.228,0.954,-1.752,0.161,1.591,-0.368,0.237,0.19,0.365,0.362,0.075,0.66,0.869,-0.357
'0:00.762',1.278,2.229,0.952,-1.754,0.163,1.591,-0.365,0.227,0.169,0.343,0.349,0.066,0.647,0.868,-0.353
'0:00.763',1.282,2.235,0.953,-1.758,0.165,1.594,-0.368,0.211,0.151,0.329,0.341,0.057,0.636,0.868,-0.35
'0:00.764',1.276,2.244,0.969,-1.76,0.153,1.607,-0.371,0.197,0.139,0.32,0.331,0.047,0.627,0.876,-0.35
'0:00.765',1.27,2.251,0.982,-1.76,0.144,1.617,-0.371,0.178,0.122,0.308,0.324,0.041,0.619,0.885,-0.349
'0:00.766',1.26,2.241,0.982,-1.75,0.139,1.612,-0.375,0.159,0.105,0.294,0.317,0.034,0.612,0.876,-0.345
'0:00.767',1.238,2.225,0.988,-1.732,0.125,1.607,-0.381,0.133,0.088,0.281,0.309,0.026,0.607,0.865,-0.341
'0:00.768',1.218,2.212,0.995,-1.714,0.111,1.603,-0.376,0.116,0.082,0.278,0.308,0.023,0.6,0.856,-0.337
'0:00.769',1.222,2.208,0.987,-1.715,0.117,1.597,-0.373,0.097,0.075,0.273,0.304,0.021,0.595,0.856,-0.332
'0:00.770',1.234,2.216,0.982,-1.725,0.126,1.599,-0.378,0.069,0.07,0.268,0.299,0.018,0.595,0.859,-0.329
'0:00.771',1.235,2.219,0.985,-1.727,0.125,1.602,-0.378,0.057,0.061,0.263,0.29,0.011,0.584,0.852,-0.331
'0:00.772',1.234,2.212,0.979,-1.723,0.128,1.596,-0.392,0.051,0.047,0.254,0.284,0.006,0.578,0.853,-0.326
'0:00.773',1.216,2.201,0.986,-1.708,0.115,1.593,-0.412,0.053,0.044,0.256,0.285,0.006,0.577,0.852,-0.319
'0:00.774',1.198,2.185,0.988,-1.691,0.104,1.587,-0.417,0.043,0.037,0.254,0.277,0.001,0.571,0.838,-0.312
'0:00.775',1.2,2.174,0.975,-1.687,0.112,1.575,-0.426,0.018,0.016,0.239,0.261,-0.011,0.563,0.833,-0.302
'0:00.776',1.196,2.168,0.973,-1.682,0.111,1.571,-0.443,0.007,0.006,0.226,0.246,-0.022,0.552,0.833,-0.301
'0:00.777',1.183,2.166,0.983,-1.675,0.1,1.575,-0.446,0.012,0.012,0.221,0.24,-0.026,0.542,0.828,-0.304
'0:00.778',1.183,2.174,0.992,-1.679,0.096,1.583,-0.449,0.012,0.015,0.216,0.236,-0.029,0.538,0.836,-0.3
'0:00.779',1.191,2.178,0.988,-1.685,0.102,1.583,-0.455,0.006,0.014,0.209,0.229,-0.034,0.535,0.834,-0.291
'0:00.780',1.186,2.171,0.985,-1.678,0.1,1.578,-0.455,0.001,0.004,0.197,0.22,-0.04,0.527,0.828,-0.287
'0:00.781',1.175,2.163,0.989,-1.669,0.092,1.577,-0.455,-0.009,-0.015,0.178,0.208,-0.048,0.516,0.827,-0.286
'0:00.782',1.171,2.158,0.988,-1.664,0.091,1.573,-0.458,-0.024,-0.039,0.157,0.197,-0.057,0.507,0.824,-0.282
'0:00.783',1.165,2.155,0.99,-1.659,0.087,1.573,-0.462,-0.04,-0.062,0.143,0.191,-0.061,0.5,0.821,-0.28
'0:00.784',1.161,2.155,0.995,-1.658,0.083,1.575,-0.464,-0.066,-0.084,0.133,0.185,-0.065,0.494,0.82,-0.278
'0:00.785',1.147,2.143,0.996,-1.645,0.075,1.569,-0.465,-0.091,-0.106,0.118,0.174,-0.075,0.48,0.817,-0.273
'0:00.786',1.14,2.129,0.99,-1.635,0.075,1.56,-0.465,-0.103,-0.119,0.111,0.166,-0.082,0.473,0.807,-0.268
'0:00.787',1.134,2.118,0.985,-1.626,0.074,1.552,-0.469,-0.113,-0.131,0.101,0.155,-0.09,0.464,0.8,-0.264
'0:00.788',1.117,2.107,0.991,-1.612,0.063,1.55,-0.473,-0.121,-0.145,0.087,0.142,-0.102,0.452,0.802,-0.259
'0:00.789',1.12,2.105,0.986,-1.613,0.067,1.546,-0.482,-0.128,-0.146,0.086,0.141,-0.103,0.456,0.796,-0.252
'0:00.790',1.117,2.106,0.99,-1.611,0.064,1.548,-0.489,-0.131,-0.138,0.089,0.137,-0.109,0.455,0.795,-0.247
'0:00.791',1.113,2.107,0.995,-1.611,0.059,1.552,-0.488,-0.132,-0.134,0.091,0.136,-0.111,0.455,0.796,-0.245
'0:00.792',1.121,2.115,0.995,-1.618,0.063,1.555,-0.481,-0.129,-0.127,0.093,0.139,-0.106,0.452,0.797,-0.254
'0:00.793',1.123,2.127,1.004,-1.625,0.059,1.567,-0.471,-0.13,-0.129,0.088,0.133,-0.112,0.438,0.801,-0.258
'0:00.794',1.119,2.117,0.999,-1.618,0.06,1.558,-0.473,-0.148,-0.145,0.074,0.126,-0.117,0.431,0.79,-0.252
'0:00.795',1.112,2.106,0.995,-1.609,0.059,1.55,-0.48,-0.16,-0.155,0.061,0.119,-0.122,0.426,0.786,-0.251
'0:00.796',1.111,2.107,0.997,-1.609,0.057,1.552,-0.482,-0.155,-0.154,0.059,0.118,-0.123,0.425,0.789,-0.25
'0:00.797',1.098,2.104,1.007,-1.601,0.045,1.556,-0.486,-0.153,-0.155,0.059,0.115,-0.127,0.422,0.784,-0.247
'0:00.798',1.091,2.101,1.011,-1.596,0.04,1.556,-0.498,-0.165,-0.17,0.045,0.101,-0.141,0.418,0.78,-0.238
'0:00.799',1.087,2.095,1.009,-1.591,0.038,1.552,-0.504,-0.18,-0.186,0.032,0.09,-0.146,0.415,0.782,-0.232
'0:00.800',1.075,2.086,1.012,-1.581,0.032,1.549,-0.507,-0.191,-0.203,0.021,0.081,-0.154,0.407,0.784,-0.231
'0:00.801',1.071,2.081,1.011,-1.577,0.029,1.546,-0.51,-0.209,-0.221,0.006,0.069,-0.166,0.398,0.778,-0.229
'0:00.802',1.075,2.078,1.004,-1.577,0.036,1.541,-0.511,-0.222,-0.233,-0.004,0.061,-0.171,0.394,0.775,-0.228
'0:00.803',1.082,2.076,0.995,-1.579,0.043,1.536,-0.51,-0.23,-0.24,-0.009,0.054,-0.178,0.384,0.775,-0.225
'0:00.804',1.083,2.087,1.004,-1.586,0.039,1.546,-0.498,-0.235,-0.243,-0.009,0.052,-0.18,0.372,0.777,-0.226
'0:00.805',1.084,2.094,1.01,-1.589,0.037,1.552,-0.49,-0.238,-0.239,-0.007,0.052,-0.18,0.371,0.777,-0.228
'0:00.806',1.077,2.08,1.004,-1.579,0.035,1.543,-0.497,-0.241,-0.238,-0.011,0.049,-0.183,0.37,0.77,-0.223
'0:00.807',1.071,2.075,1.005,-1.573,0.033,1.54,-0.503,-0.238,-0.232,-0.015,0.051,-0.179,0.371,0.771,-0.22
'0:00.808',1.06,2.075,1.016,-1.568,0.021,1.546,-0.499,-0.225,-0.222,-0.015,0.056,-0.174,0.372,0.773,-0.22
'0:00.809',1.059,2.068,1.01,-1.564,0.025,1.54,-0.502,-0.228,-0.231,-0.029,0.045,-0.18,0.368,0.77,-0.216
'0:00.810',1.063,2.062,1,-1.563,0.031,1.532,-0.515,-0.234,-0.241,-0.043,0.032,-0.189,0.361,0.769,-0.211
'0:00.811',1.057,2.063,1.006,-1.56,0.025,1.535,-0.519,-0.23,-0.244,-0.043,0.029,-0.19,0.359,0.766,-0.209
'0:00.812',1.061,2.07,1.01,-1.565,0.025,1.54,-0.521,-0.232,-0.251,-0.05,0.022,-0.197,0.351,0.766,-0.212
'0:00.813',1.054,2.066,1.012,-1.56,0.021,1.539,-0.524,-0.245,-0.268,-0.064,0.007,-0.209,0.341,0.767,-0.212
'0:00.814',1.044,2.054,1.01,-1.55,0.018,1.532,-0.525,-0.261,-0.287,-0.073,0.002,-0.212,0.34,0.764,-0.208
'0:00.815',1.036,2.051,1.015,-1.544,0.011,1.534,-0.518,-0.267,-0.292,-0.076,0.001,-0.212,0.332,0.758,-0.211
'0:00.816',1.038,2.055,1.018,-1.546,0.009,1.537,-0.515,-0.278,-0.3,-0.078,0.001,-0.214,0.326,0.756,-0.209
'0:00.817',1.034,2.064,1.03,-1.55,0.002,1.547,-0.511,-0.276,-0.3,-0.073,0.009,-0.207,0.333,0.765,-0.205
'0:00.818',1.028,2.067,1.04,-1.548,-0.005,1.554,-0.51,-0.27,-0.292,-0.068,0.011,-0.206,0.335,0.769,-0.21
'0:00.819',1.032,2.067,1.035,-1.55,-0.002,1.55,-0.522,-0.266,-0.278,-0.061,0.008,-0.212,0.334,0.769,-0.208
'0:00.820',1.037,2.07,1.033,-1.554,0.002,1.552,-0.52,-0.246,-0.263,-0.054,0.007,-0.214,0.329,0.764,-0.211
'0:00.821',1.052,2.071,1.019,-1.562,0.016,1.545,-0.512,-0.236,-0.259,-0.056,0.005,-0.215,0.327,0.762,-0.214
'0:00.822',1.055,2.073,1.018,-1.565,0.018,1.546,-0.505,-0.243,-0.263,-0.06,0.002,-0.216,0.324,0.768,-0.212
'0:00.823',1.054,2.081,1.027,-1.569,0.013,1.554,-0.507,-0.255,-0.276,-0.065,0.002,-0.217,0.321,0.769,-0.211
'0:00.824',1.051,2.073,1.023,-1.562,0.013,1.548,-0.513,-0.258,-0.277,-0.063,0.003,-0.215,0.323,0.767,-0.209
'0:00.825',1.052,2.06,1.009,-1.556,0.021,1.534,-0.511,-0.253,-0.275,-0.068,-0.001,-0.217,0.32,0.753,-0.21
'0:00.826',1.054,2.062,1.008,-1.558,0.022,1.536,-0.511,-0.249,-0.283,-0.076,-0.005,-0.22,0.32,0.755,-0.21
'0:00.827',1.041,2.062,1.022,-1.552,0.009,1.542,-0.516,-0.255,-0.297,-0.086,-0.013,-0.226,0.317,0.763,-0.207
'0:00.828',1.041,2.061,1.021,-1.552,0.009,1.542,-0.512,-0.267,-0.309,-0.088,-0.01,-0.223,0.317,0.76,-0.206
'0:00.829',1.036,2.053,1.017,-1.545,0.009,1.535,-0.504,-0.277,-0.312,-0.084,-0.003,-0.218,0.317,0.76,-0.205
'0:00.830',1.039,2.048,1.01,-1.544,0.015,1.529,-0.502,-0.3,-0.323,-0.088,-0.007,-0.223,0.314,0.753,-0.203
'0:00.831',1.048,2.055,1.008,-1.552,0.019,1.532,-0.507,-0.326,-0.332,-0.089,-0.009,-0.224,0.318,0.754,-0.201
'0:00.832',1.03,2.046,1.016,-1.538,0.007,1.531,-0.523,-0.344,-0.333,-0.088,-0.011,-0.23,0.321,0.753,-0.197
'0:00.833',1.022,2.033,1.012,-1.528,0.005,1.522,-0.532,-0.353,-0.333,-0.092,-0.016,-0.234,0.32,0.75,-0.193
'0:00.834',1.026,2.035,1.01,-1.532,0.008,1.523,-0.528,-0.351,-0.329,-0.089,-0.015,-0.233,0.324,0.754,-0.195
'0:00.835',1.021,2.038,1.018,-1.53,0.002,1.528,-0.527,-0.34,-0.319,-0.083,-0.014,-0.235,0.327,0.756,-0.191
'0:00.836',1.011,2.038,1.028,-1.525,-0.009,1.534,-0.529,-0.304,-0.305,-0.073,-0.013,-0.234,0.325,0.755,-0.189
'0:00.837',1.022,2.049,1.027,-1.536,-0.003,1.538,-0.534,-0.277,-0.295,-0.068,-0.014,-0.234,0.321,0.758,-0.188
'0:00.838',1.048,2.068,1.021,-1.559,0.013,1.545,-0.519,-0.266,-0.282,-0.056,-0.005,-0.227,0.319,0.762,-0.195
'0:00.839',1.052,2.076,1.024,-1.565,0.013,1.551,-0.505,-0.266,-0.274,-0.048,0.007,-0.216,0.323,0.769,-0.202
'0:00.840',1.043,2.068,1.026,-1.556,0.008,1.548,-0.513,-0.275,-0.277,-0.054,0.002,-0.22,0.325,0.773,-0.199
'0:00.841',1.038,2.064,1.027,-1.552,0.005,1.546,-0.516,-0.283,-0.281,-0.063,-0.008,-0.227,0.321,0.771,-0.196
'0:00.842',1.04,2.066,1.026,-1.554,0.007,1.546,-0.519,-0.302,-0.296,-0.074,-0.014,-0.232,0.318,0.765,-0.195
'0:00.843',1.04,2.062,1.021,-1.552,0.009,1.542,-0.518,-0.307,-0.306,-0.08,-0.017,-0.234,0.315,0.762,-0.195
'0:00.844',1.036,2.061,1.026,-1.548,0.004,1.544,-0.529,-0.3,-0.304,-0.077,-0.012,-0.227,0.319,0.769,-0.194
'0:00.845',1.031,2.059,1.028,-1.546,0.001,1.544,-0.543,-0.307,-0.309,-0.079,-0.014,-0.226,0.319,0.767,-0.191
'0:00.846',1.016,2.047,1.032,-1.532,-0.008,1.54,-0.533,-0.308,-0.311,-0.081,-0.018,-0.229,0.31,0.76,-0.19
'0:00.847',1.012,2.042,1.03,-1.528,-0.009,1.536,-0.528,-0.295,-0.305,-0.077,-0.011,-0.221,0.315,0.757,-0.191
'0:00.848',1.016,2.034,1.018,-1.526,-0.001,1.526,-0.543,-0.287,-0.309,-0.082,-0.015,-0.225,0.314,0.751,-0.188
'0:00.849',1.018,2.03,1.012,-1.525,0.003,1.522,-0.552,-0.281,-0.312,-0.086,-0.022,-0.232,0.307,0.748,-0.186
'0:00.850',1.034,2.038,1.004,-1.536,0.015,1.522,-0.544,-0.282,-0.307,-0.085,-0.021,-0.228,0.314,0.751,-0.192
'0:00.851',1.038,2.047,1.01,-1.543,0.013,1.529,-0.538,-0.285,-0.305,-0.087,-0.023,-0.229,0.312,0.759,-0.194
'0:00.852',1.032,2.055,1.023,-1.544,0.004,1.539,-0.536,-0.294,-0.309,-0.091,-0.024,-0.23,0.31,0.763,-0.188
'0:00.853',1.034,2.054,1.02,-1.544,0.006,1.537,-0.538,-0.301,-0.311,-0.091,-0.023,-0.229,0.311,0.761,-0.182
'0:00.854',1.026,2.045,1.02,-1.536,0.003,1.533,-0.54,-0.302,-0.311,-0.091,-0.023,-0.229,0.307,0.759,-0.182
'0:00.855',1.02,2.039,1.02,-1.53,-0.001,1.53,-0.541,-0.31,-0.316,-0.094,-0.023,-0.23,0.303,0.754,-0.183
'0:00.856',1.022,2.044,1.023,-1.534,-0.001,1.534,-0.541,-0.313,-0.318,-0.095,-0.019,-0.228,0.308,0.753,-0.183
'0:00.857',1.026,2.05,1.024,-1.538,0.001,1.537,-0.545,-0.31,-0.319,-0.095,-0.017,-0.226,0.316,0.753,-0.182
'0:00.858',1.032,2.047,1.016,-1.54,0.007,1.532,-0.553,-0.306,-0.314,-0.091,-0.018,-0.229,0.318,0.751,-0.181
'0:00.859',1.027,2.045,1.018,-1.536,0.004,1.532,-0.556,-0.3,-0.305,-0.09,-0.02,-0.234,0.314,0.755,-0.182
'0:00.860',1.026,2.05,1.024,-1.539,0.001,1.538,-0.556,-0.299,-0.306,-0.092,-0.025,-0.241,0.309,0.757,-0.183
'0:00.861',1.03,2.054,1.024,-1.542,0.004,1.539,-0.557,-0.296,-0.305,-0.09,-0.019,-0.234,0.316,0.755,-0.181
'0:00.862',1.029,2.054,1.026,-1.542,0.002,1.54,-0.562,-0.295,-0.312,-0.101,-0.023,-0.235,0.315,0.756,-0.178
'0:00.863',1.03,2.062,1.033,-1.546,-0.002,1.548,-0.558,-0.299,-0.318,-0.11,-0.025,-0.236,0.311,0.764,-0.179
'0:00.864',1.029,2.064,1.036,-1.547,-0.004,1.55,-0.548,-0.3,-0.319,-0.109,-0.023,-0.236,0.308,0.766,-0.181
'0:00.865',1.032,2.068,1.036,-1.55,-0.002,1.552,-0.547,-0.3,-0.326,-0.113,-0.029,-0.242,0.304,0.764,-0.183
'0:00.866',1.025,2.071,1.046,-1.548,-0.011,1.558,-0.543,-0.29,-0.324,-0.107,-0.019,-0.233,0.311,0.766,-0.19
'0:00.867',1.015,2.064,1.05,-1.54,-0.018,1.557,-0.539,-0.285,-0.329,-0.108,-0.022,-0.235,0.309,0.763,-0.192
'0:00.868',1.01,2.063,1.054,-1.537,-0.022,1.559,-0.535,-0.288,-0.337,-0.114,-0.025,-0.236,0.307,0.77,-0.194
'0:00.869',1.007,2.064,1.058,-1.536,-0.025,1.561,-0.537,-0.292,-0.347,-0.12,-0.029,-0.24,0.305,0.774,-0.19
'0:00.870',1,2.047,1.047,-1.524,-0.024,1.548,-0.54,-0.306,-0.36,-0.13,-0.042,-0.252,0.297,0.766,-0.189
'0:00.871',1.005,2.048,1.043,-1.527,-0.019,1.546,-0.539,-0.311,-0.351,-0.12,-0.037,-0.247,0.303,0.766,-0.192
'0:00.872',1.012,2.054,1.043,-1.534,-0.016,1.549,-0.54,-0.316,-0.343,-0.115,-0.036,-0.247,0.309,0.767,-0.191
'0:00.873',1.005,2.053,1.048,-1.53,-0.022,1.551,-0.535,-0.313,-0.331,-0.107,-0.031,-0.243,0.312,0.766,-0.193
'0:00.874',1.018,2.068,1.05,-1.544,-0.017,1.56,-0.521,-0.303,-0.318,-0.099,-0.023,-0.235,0.312,0.769,-0.194
'0:00.875',1.024,2.074,1.05,-1.55,-0.013,1.562,-0.513,-0.306,-0.32,-0.103,-0.025,-0.236,0.308,0.776,-0.192
'0:00.876',1.022,2.072,1.05,-1.548,-0.014,1.562,-0.515,-0.305,-0.318,-0.105,-0.026,-0.237,0.308,0.774,-0.193
'0:00.877',1.027,2.073,1.046,-1.55,-0.01,1.56,-0.522,-0.3,-0.314,-0.105,-0.026,-0.237,0.306,0.771,-0.192
'0:00.878',1.028,2.068,1.041,-1.548,-0.007,1.554,-0.528,-0.298,-0.312,-0.106,-0.03,-0.24,0.305,0.764,-0.188
'0:00.879',1.035,2.065,1.03,-1.55,0.002,1.548,-0.528,-0.299,-0.312,-0.106,-0.032,-0.239,0.309,0.76,-0.184
'0:00.880',1.032,2.062,1.03,-1.548,0.001,1.546,-0.535,-0.306,-0.315,-0.11,-0.031,-0.238,0.308,0.761,-0.184
'0:00.881',1.02,2.055,1.036,-1.538,-0.008,1.546,-0.54,-0.308,-0.319,-0.115,-0.036,-0.245,0.302,0.76,-0.186
'0:00.882',1.022,2.064,1.042,-1.544,-0.01,1.554,-0.533,-0.303,-0.32,-0.114,-0.034,-0.241,0.304,0.772,-0.191
'0:00.883',1.032,2.075,1.044,-1.554,-0.006,1.56,-0.535,-0.297,-0.318,-0.11,-0.029,-0.237,0.305,0.778,-0.193
'0:00.884',1.03,2.07,1.04,-1.55,-0.005,1.556,-0.537,-0.294,-0.32,-0.114,-0.034,-0.242,0.298,0.774,-0.191
'0:00.885',1.018,2.069,1.052,-1.544,-0.017,1.56,-0.534,-0.295,-0.32,-0.119,-0.039,-0.243,0.298,0.775,-0.189
'0:00.886',1.02,2.073,1.054,-1.547,-0.017,1.563,-0.532,-0.295,-0.318,-0.13,-0.046,-0.247,0.298,0.773,-0.189
'0:00.887',1.028,2.07,1.042,-1.55,-0.007,1.556,-0.528,-0.294,-0.312,-0.138,-0.048,-0.249,0.298,0.767,-0.191
'0:00.888',1.034,2.065,1.032,-1.55,0.001,1.548,-0.523,-0.297,-0.316,-0.143,-0.051,-0.25,0.296,0.766,-0.195
'0:00.889',1.037,2.055,1.019,-1.547,0.009,1.538,-0.523,-0.308,-0.337,-0.157,-0.059,-0.259,0.291,0.761,-0.192
'0:00.890',1.038,2.061,1.022,-1.55,0.008,1.542,-0.525,-0.323,-0.352,-0.159,-0.057,-0.26,0.289,0.764,-0.192
'0:00.891',1.038,2.067,1.03,-1.554,0.004,1.549,-0.522,-0.328,-0.359,-0.152,-0.05,-0.254,0.292,0.765,-0.196
'0:00.892',1.022,2.06,1.038,-1.542,-0.007,1.549,-0.52,-0.321,-0.362,-0.143,-0.038,-0.245,0.3,0.766,-0.195
'0:00.893',1.002,2.056,1.054,-1.53,-0.026,1.556,-0.509,-0.3,-0.352,-0.118,-0.015,-0.229,0.314,0.773,-0.197
'0:00.894',0.993,2.054,1.062,-1.524,-0.035,1.558,-0.506,-0.294,-0.345,-0.103,-0.006,-0.223,0.316,0.767,-0.198
'0:00.895',1.002,2.057,1.056,-1.53,-0.028,1.556,-0.515,-0.302,-0.348,-0.104,-0.014,-0.226,0.315,0.768,-0.197
'0:00.896',1.006,2.059,1.054,-1.532,-0.025,1.556,-0.52,-0.298,-0.35,-0.103,-0.017,-0.23,0.316,0.769,-0.192
'0:00.897',1.006,2.058,1.052,-1.532,-0.024,1.556,-0.526,-0.296,-0.338,-0.098,-0.017,-0.232,0.313,0.771,-0.19
'0:00.898',1.018,2.063,1.046,-1.541,-0.014,1.554,-0.524,-0.288,-0.314,-0.086,-0.014,-0.229,0.316,0.775,-0.191
'0:00.899',1.032,2.075,1.044,-1.554,-0.006,1.56,-0.52,-0.281,-0.298,-0.077,-0.017,-0.233,0.316,0.771,-0.189
'0:00.900',1.034,2.076,1.043,-1.556,-0.005,1.56,-0.512,-0.271,-0.279,-0.07,-0.015,-0.232,0.317,0.77,-0.192
'0:00.901',1.026,2.074,1.048,-1.55,-0.011,1.562,-0.508,-0.269,-0.277,-0.078,-0.018,-0.232,0.316,0.773,-0.199
'0:00.902',1.016,2.069,1.054,-1.543,-0.019,1.562,-0.503,-0.278,-0.291,-0.092,-0.026,-0.239,0.306,0.771,-0.201
'0:00.903',1.017,2.065,1.048,-1.542,-0.016,1.557,-0.501,-0.281,-0.299,-0.101,-0.029,-0.239,0.304,0.769,-0.202
'0:00.904',1.018,2.072,1.054,-1.546,-0.018,1.564,-0.5,-0.281,-0.303,-0.101,-0.025,-0.236,0.309,0.773,-0.203
'0:00.905',1.009,2.07,1.062,-1.54,-0.026,1.566,-0.494,-0.28,-0.305,-0.1,-0.025,-0.235,0.308,0.77,-0.205
'0:00.906',1.018,2.068,1.05,-1.544,-0.016,1.559,-0.508,-0.29,-0.317,-0.109,-0.028,-0.234,0.311,0.771,-0.202
'0:00.907',1.029,2.068,1.04,-1.55,-0.005,1.554,-0.525,-0.297,-0.327,-0.113,-0.032,-0.234,0.315,0.77,-0.197
'0:00.908',1.027,2.07,1.044,-1.549,-0.009,1.557,-0.532,-0.304,-0.335,-0.114,-0.035,-0.238,0.311,0.769,-0.199
'0:00.909',1.028,2.076,1.048,-1.552,-0.011,1.562,-0.539,-0.321,-0.341,-0.117,-0.035,-0.237,0.311,0.779,-0.196
'0:00.910',1.028,2.078,1.05,-1.554,-0.011,1.565,-0.539,-0.322,-0.338,-0.117,-0.032,-0.234,0.315,0.778,-0.196
'0:00.911',1.022,2.076,1.055,-1.55,-0.017,1.566,-0.535,-0.315,-0.334,-0.113,-0.028,-0.233,0.317,0.779,-0.196
'0:00.912',1.028,2.075,1.048,-1.552,-0.011,1.562,-0.534,-0.302,-0.317,-0.106,-0.025,-0.229,0.319,0.78,-0.193
'0:00.913',1.031,2.071,1.04,-1.552,-0.005,1.556,-0.54,-0.289,-0.294,-0.1,-0.022,-0.23,0.322,0.779,-0.194
'0:00.914',1.016,2.06,1.044,-1.538,-0.014,1.552,-0.539,-0.29,-0.29,-0.102,-0.026,-0.233,0.32,0.772,-0.193
'0:00.915',1.011,2.057,1.046,-1.534,-0.018,1.552,-0.53,-0.293,-0.299,-0.107,-0.029,-0.234,0.316,0.765,-0.194
'0:00.916',1.022,2.062,1.041,-1.542,-0.01,1.552,-0.521,-0.303,-0.314,-0.113,-0.029,-0.235,0.314,0.772,-0.197
'0:00.917',1.036,2.068,1.032,-1.553,0.002,1.551,-0.511,-0.303,-0.32,-0.113,-0.027,-0.234,0.312,0.77,-0.199
'0:00.918',1.04,2.074,1.034,-1.558,0.003,1.554,-0.502,-0.305,-0.325,-0.112,-0.027,-0.232,0.312,0.766,-0.199
'0:00.919',1.035,2.079,1.045,-1.558,-0.005,1.562,-0.5,-0.323,-0.335,-0.111,-0.025,-0.232,0.312,0.768,-0.198
'0:00.920',1.028,2.076,1.048,-1.553,-0.01,1.562,-0.502,-0.312,-0.337,-0.105,-0.022,-0.232,0.317,0.769,-0.199
'0:00.921',1.021,2.074,1.053,-1.548,-0.016,1.563,-0.514,-0.286,-0.332,-0.101,-0.021,-0.232,0.321,0.775,-0.197
'0:00.922',1.018,2.08,1.062,-1.55,-0.022,1.571,-0.533,-0.277,-0.321,-0.096,-0.021,-0.232,0.325,0.774,-0.194
'0:00.923',1.025,2.078,1.053,-1.552,-0.015,1.566,-0.537,-0.281,-0.304,-0.088,-0.022,-0.235,0.33,0.775,-0.196
'0:00.924',1.026,2.072,1.046,-1.549,-0.011,1.56,-0.529,-0.293,-0.3,-0.086,-0.024,-0.235,0.328,0.78,-0.199
'0:00.925',1.026,2.07,1.045,-1.548,-0.01,1.558,-0.52,-0.296,-0.306,-0.088,-0.027,-0.237,0.321,0.777,-0.201
'0:00.926',1.026,2.08,1.054,-1.554,-0.014,1.567,-0.512,-0.291,-0.301,-0.084,-0.023,-0.235,0.317,0.776,-0.203
'0:00.927',1.019,2.087,1.069,-1.554,-0.025,1.578,-0.51,-0.293,-0.302,-0.082,-0.017,-0.231,0.317,0.782,-0.203
'0:00.928',1.01,2.08,1.071,-1.546,-0.03,1.575,-0.513,-0.287,-0.306,-0.086,-0.014,-0.229,0.317,0.786,-0.205
'0:00.929',1.02,2.082,1.062,-1.552,-0.021,1.573,-0.512,-0.284,-0.305,-0.087,-0.013,-0.228,0.321,0.784,-0.203
'0:00.930',1.03,2.086,1.056,-1.558,-0.013,1.571,-0.51,-0.298,-0.315,-0.094,-0.013,-0.227,0.322,0.782,-0.202
'0:00.931',1.024,2.079,1.054,-1.552,-0.015,1.567,-0.518,-0.303,-0.322,-0.099,-0.015,-0.229,0.322,0.778,-0.201
'0:00.932',1.019,2.077,1.058,-1.548,-0.019,1.568,-0.527,-0.302,-0.322,-0.101,-0.019,-0.232,0.322,0.779,-0.198
'0:00.933',1.018,2.08,1.064,-1.55,-0.024,1.573,-0.533,-0.3,-0.318,-0.096,-0.018,-0.231,0.32,0.781,-0.197
'0:00.934',1.024,2.082,1.058,-1.553,-0.018,1.571,-0.54,-0.299,-0.31,-0.091,-0.018,-0.234,0.319,0.78,-0.193
'0:00.935',1.028,2.078,1.051,-1.554,-0.012,1.565,-0.544,-0.296,-0.307,-0.095,-0.022,-0.236,0.318,0.778,-0.188
'0:00.936',1.036,2.083,1.048,-1.56,-0.006,1.565,-0.544,-0.279,-0.3,-0.092,-0.018,-0.232,0.319,0.774,-0.186
'0:00.937',1.031,2.083,1.052,-1.557,-0.011,1.567,-0.546,-0.262,-0.294,-0.086,-0.012,-0.228,0.318,0.772,-0.19
'0:00.938',1.026,2.083,1.056,-1.555,-0.015,1.57,-0.536,-0.265,-0.294,-0.085,-0.009,-0.226,0.315,0.779,-0.196
'0:00.939',1.036,2.09,1.054,-1.563,-0.009,1.572,-0.526,-0.278,-0.297,-0.086,-0.009,-0.226,0.315,0.787,-0.202
'0:00.940',1.039,2.085,1.046,-1.562,-0.004,1.566,-0.531,-0.285,-0.297,-0.088,-0.009,-0.228,0.315,0.781,-0.2
'0:00.941',1.034,2.087,1.054,-1.561,-0.011,1.571,-0.53,-0.28,-0.287,-0.08,-0.002,-0.222,0.318,0.777,-0.201
'0:00.942',1.018,2.088,1.071,-1.554,-0.026,1.58,-0.527,-0.277,-0.282,-0.075,0.001,-0.22,0.314,0.787,-0.204
'0:00.943',1.027,2.091,1.065,-1.56,-0.019,1.578,-0.53,-0.283,-0.29,-0.083,-0.004,-0.224,0.315,0.785,-0.201
'0:00.944',1.032,2.087,1.056,-1.56,-0.013,1.573,-0.532,-0.294,-0.3,-0.091,-0.009,-0.227,0.315,0.775,-0.2
'0:00.945',1.026,2.079,1.053,-1.554,-0.013,1.567,-0.537,-0.3,-0.305,-0.091,-0.009,-0.226,0.314,0.771,-0.198
'0:00.946',1.034,2.079,1.046,-1.558,-0.006,1.563,-0.543,-0.299,-0.31,-0.093,-0.011,-0.228,0.315,0.771,-0.194
'0:00.947',1.029,2.077,1.048,-1.554,-0.01,1.563,-0.547,-0.302,-0.316,-0.096,-0.015,-0.232,0.312,0.77,-0.195
'0:00.948',1.028,2.076,1.048,-1.552,-0.01,1.562,-0.549,-0.293,-0.314,-0.092,-0.017,-0.233,0.312,0.773,-0.195
'0:00.949',1.036,2.072,1.037,-1.555,-0.001,1.555,-0.547,-0.278,-0.309,-0.09,-0.015,-0.229,0.315,0.769,-0.196
'0:00.950',1.032,2.07,1.038,-1.551,-0.004,1.554,-0.543,-0.272,-0.305,-0.086,-0.013,-0.227,0.316,0.765,-0.2
'0:00.951',1.035,2.076,1.042,-1.556,-0.004,1.56,-0.543,-0.273,-0.308,-0.089,-0.015,-0.228,0.315,0.772,-0.198
'0:00.952',1.036,2.076,1.042,-1.556,-0.004,1.56,-0.549,-0.279,-0.317,-0.097,-0.018,-0.228,0.319,0.776,-0.195
'0:00.953',1.025,2.077,1.052,-1.552,-0.014,1.565,-0.554,-0.287,-0.324,-0.101,-0.026,-0.236,0.312,0.78,-0.191
'0:00.954',1.034,2.091,1.058,-1.563,-0.012,1.575,-0.552,-0.29,-0.326,-0.103,-0.029,-0.238,0.311,0.785,-0.194
'0:00.955',1.036,2.088,1.052,-1.562,-0.009,1.571,-0.549,-0.286,-0.323,-0.1,-0.025,-0.233,0.319,0.783,-0.198
'0:00.956',1.025,2.074,1.049,-1.55,-0.012,1.561,-0.548,-0.29,-0.322,-0.1,-0.026,-0.235,0.318,0.775,-0.197
'0:00.957',1.026,2.072,1.048,-1.55,-0.011,1.56,-0.549,-0.304,-0.326,-0.102,-0.026,-0.235,0.321,0.774,-0.196
'0:00.958',1.026,2.072,1.047,-1.55,-0.011,1.56,-0.545,-0.317,-0.326,-0.101,-0.025,-0.233,0.324,0.78,-0.198
'0:00.959',1.024,2.068,1.044,-1.546,-0.011,1.556,-0.544,-0.324,-0.324,-0.103,-0.028,-0.236,0.319,0.776,-0.197
'0:00.960',1.03,2.073,1.043,-1.552,-0.006,1.558,-0.551,-0.332,-0.325,-0.112,-0.032,-0.237,0.318,0.775,-0.195
'0:00.961',1.044,2.087,1.044,-1.565,-0.001,1.565,-0.543,-0.327,-0.315,-0.109,-0.026,-0.232,0.317,0.78,-0.196
'0:00.962',1.038,2.09,1.052,-1.565,-0.007,1.571,-0.537,-0.303,-0.289,-0.091,-0.017,-0.227,0.316,0.783,-0.195
'0:00.963',1.03,2.089,1.06,-1.56,-0.015,1.574,-0.543,-0.294,-0.288,-0.091,-0.018,-0.23,0.319,0.778,-0.196
'0:00.964',1.038,2.091,1.052,-1.565,-0.007,1.571,-0.545,-0.301,-0.31,-0.107,-0.028,-0.236,0.315,0.774,-0.197
'0:00.965',1.037,2.084,1.048,-1.561,-0.006,1.567,-0.548,-0.3,-0.32,-0.108,-0.028,-0.237,0.314,0.78,-0.196
'0:00.966',1.031,2.078,1.047,-1.554,-0.009,1.562,-0.554,-0.296,-0.327,-0.105,-0.025,-0.237,0.314,0.779,-0.194
'0:00.967',1.026,2.083,1.057,-1.555,-0.015,1.57,-0.556,-0.299,-0.333,-0.102,-0.021,-0.235,0.317,0.782,-0.191
'0:00.968',1.022,2.093,1.071,-1.558,-0.025,1.583,-0.55,-0.302,-0.334,-0.096,-0.015,-0.234,0.318,0.791,-0.194
'0:00.969',1.026,2.095,1.069,-1.561,-0.022,1.583,-0.549,-0.304,-0.335,-0.091,-0.011,-0.229,0.321,0.785,-0.193
'0:00.970',1.026,2.086,1.06,-1.556,-0.018,1.573,-0.548,-0.303,-0.331,-0.087,-0.006,-0.224,0.324,0.776,-0.191
'0:00.971',1.021,2.071,1.051,-1.547,-0.015,1.562,-0.549,-0.307,-0.328,-0.088,-0.01,-0.228,0.321,0.773,-0.192
'0:00.972',1.028,2.078,1.05,-1.554,-0.011,1.565,-0.549,-0.311,-0.315,-0.084,-0.013,-0.23,0.322,0.772,-0.191
'0:00.973',1.028,2.079,1.052,-1.554,-0.013,1.566,-0.548,-0.307,-0.306,-0.083,-0.015,-0.234,0.319,0.774,-0.192
'0:00.974',1.022,2.074,1.051,-1.548,-0.015,1.562,-0.545,-0.303,-0.308,-0.09,-0.021,-0.237,0.315,0.774,-0.193
'0:00.975',1.03,2.077,1.048,-1.554,-0.009,1.563,-0.539,-0.294,-0.304,-0.101,-0.025,-0.24,0.312,0.774,-0.196
'0:00.976',1.036,2.079,1.044,-1.558,-0.004,1.562,-0.543,-0.294,-0.306,-0.118,-0.033,-0.243,0.309,0.778,-0.199
'0:00.977',1.035,2.081,1.046,-1.558,-0.006,1.564,-0.544,-0.292,-0.308,-0.124,-0.035,-0.243,0.311,0.784,-0.199
'0:00.978',1.032,2.078,1.046,-1.556,-0.007,1.562,-0.541,-0.289,-0.309,-0.126,-0.041,-0.246,0.31,0.783,-0.197
'0:00.979',1.024,2.075,1.052,-1.55,-0.015,1.564,-0.54,-0.292,-0.317,-0.126,-0.037,-0.243,0.31,0.774,-0.197
'0:00.980',1.019,2.076,1.057,-1.548,-0.019,1.567,-0.537,-0.294,-0.327,-0.127,-0.034,-0.241,0.312,0.773,-0.196
'0:00.981',1.022,2.078,1.057,-1.55,-0.018,1.568,-0.534,-0.299,-0.344,-0.135,-0.042,-0.244,0.306,0.78,-0.197
'0:00.982',1.018,2.083,1.065,-1.552,-0.024,1.574,-0.527,-0.307,-0.356,-0.134,-0.043,-0.246,0.301,0.783,-0.201
'0:00.983',1.023,2.089,1.066,-1.556,-0.022,1.577,-0.525,-0.32,-0.369,-0.133,-0.043,-0.249,0.3,0.782,-0.203
'0:00.984',1.019,2.098,1.079,-1.558,-0.03,1.589,-0.521,-0.323,-0.369,-0.122,-0.031,-0.238,0.306,0.79,-0.209
'0:00.985',1.012,2.099,1.087,-1.556,-0.037,1.593,-0.525,-0.325,-0.36,-0.105,-0.017,-0.229,0.315,0.791,-0.206
'0:00.986',1.022,2.092,1.071,-1.558,-0.025,1.583,-0.538,-0.331,-0.361,-0.107,-0.023,-0.233,0.318,0.787,-0.198
'0:00.987',1.026,2.087,1.06,-1.557,-0.017,1.573,-0.544,-0.329,-0.352,-0.104,-0.023,-0.231,0.324,0.788,-0.19
'0:00.988',1.03,2.08,1.05,-1.556,-0.01,1.565,-0.549,-0.322,-0.33,-0.092,-0.021,-0.23,0.328,0.78,-0.186
'0:00.989',1.035,2.078,1.044,-1.556,-0.004,1.56,-0.547,-0.32,-0.32,-0.091,-0.027,-0.233,0.326,0.78,-0.189
'0:00.990',1.031,2.074,1.043,-1.552,-0.006,1.558,-0.546,-0.319,-0.326,-0.097,-0.029,-0.234,0.325,0.779,-0.19
'0:00.991',1.028,2.067,1.038,-1.548,-0.005,1.553,-0.55,-0.316,-0.329,-0.098,-0.026,-0.234,0.325,0.766,-0.189
'0:00.992',1.032,2.066,1.034,-1.55,-0.002,1.55,-0.559,-0.318,-0.33,-0.1,-0.026,-0.232,0.33,0.765,-0.185
'0:00.993',1.025,2.067,1.043,-1.547,-0.009,1.556,-0.555,-0.307,-0.32,-0.098,-0.025,-0.232,0.33,0.772,-0.184
'0:00.994',1.016,2.067,1.051,-1.542,-0.018,1.559,-0.547,-0.306,-0.318,-0.099,-0.025,-0.233,0.327,0.773,-0.188
'0:00.995',1.024,2.062,1.04,-1.544,-0.009,1.551,-0.551,-0.318,-0.326,-0.107,-0.03,-0.234,0.324,0.766,-0.186
'0:00.996',1.034,2.068,1.036,-1.552,-0.001,1.552,-0.549,-0.321,-0.329,-0.113,-0.035,-0.238,0.318,0.765,-0.188
'0:00.997',1.031,2.082,1.052,-1.557,-0.011,1.567,-0.547,-0.314,-0.327,-0.116,-0.037,-0.243,0.312,0.775,-0.19
'0:00.998',1.025,2.083,1.059,-1.555,-0.017,1.571,-0.547,-0.313,-0.33,-0.119,-0.037,-0.243,0.313,0.784,-0.189
'0:00.999',1.028,2.08,1.052,-1.554,-0.012,1.567,-0.541,-0.321,-0.337,-0.124,-0.035,-0.241,0.315,0.777,-0.191
'0:01.000',1.022,2.074,1.052,-1.548,-0.015,1.563,-0.531,-0.321,-0.339,-0.124,-0.035,-0.242,0.314,0.775,-0.194
'0:01.001',1.008,2.065,1.057,-1.538,-0.025,1.561,-0.524,-0.325,-0.345,-0.124,-0.033,-0.238,0.312,0.775,-0.196
'0:01.002',1.004,2.061,1.057,-1.533,-0.026,1.559,-0.521,-0.326,-0.348,-0.121,-0.026,-0.233,0.318,0.773,-0.197
'0:01.003',1.004,2.058,1.054,-1.532,-0.025,1.556,-0.523,-0.332,-0.354,-0.125,-0.035,-0.24,0.314,0.774,-0.194
'0:01.004',1.004,2.053,1.05,-1.528,-0.024,1.552,-0.532,-0.338,-0.357,-0.131,-0.045,-0.25,0.31,0.764,-0.19
'0:01.005',1.006,2.057,1.052,-1.532,-0.023,1.554,-0.531,-0.33,-0.351,-0.127,-0.048,-0.252,0.312,0.771,-0.189
'0:01.006',1.007,2.064,1.058,-1.536,-0.025,1.561,-0.52,-0.323,-0.345,-0.122,-0.045,-0.249,0.309,0.775,-0.191
'0:01.007',1.006,2.062,1.055,-1.534,-0.025,1.558,-0.524,-0.329,-0.34,-0.117,-0.042,-0.249,0.308,0.768,-0.194
'0:01.008',1.026,2.08,1.055,-1.554,-0.015,1.567,-0.522,-0.344,-0.344,-0.115,-0.041,-0.249,0.304,0.779,-0.192
'0:01.009',1.038,2.095,1.058,-1.567,-0.011,1.577,-0.526,-0.36,-0.349,-0.114,-0.038,-0.248,0.303,0.78,-0.189
'0:01.010',1.031,2.087,1.056,-1.559,-0.013,1.571,-0.531,-0.351,-0.337,-0.104,-0.038,-0.249,0.304,0.78,-0.194
'0:01.011',1.043,2.099,1.056,-1.571,-0.007,1.578,-0.526,-0.32,-0.325,-0.093,-0.031,-0.245,0.306,0.786,-0.201
'0:01.012',1.054,2.106,1.052,-1.579,0,1.579,-0.546,-0.317,-0.333,-0.093,-0.026,-0.242,0.31,0.784,-0.202
'0:01.013',1.065,2.105,1.04,-1.585,0.013,1.573,-0.558,-0.315,-0.338,-0.094,-0.025,-0.241,0.314,0.778,-0.198
'0:01.014',1.05,2.099,1.048,-1.575,0.001,1.574,-0.55,-0.317,-0.338,-0.096,-0.028,-0.244,0.307,0.776,-0.194
'0:01.015',1.028,2.087,1.059,-1.558,-0.015,1.573,-0.548,-0.334,-0.339,-0.093,-0.026,-0.242,0.31,0.778,-0.19
'0:01.016',1.032,2.086,1.055,-1.559,-0.012,1.571,-0.553,-0.337,-0.325,-0.084,-0.018,-0.234,0.321,0.776,-0.186
'0:01.017',1.019,2.078,1.06,-1.549,-0.021,1.569,-0.557,-0.337,-0.322,-0.086,-0.021,-0.237,0.315,0.772,-0.185
'0:01.018',1.018,2.072,1.055,-1.546,-0.019,1.563,-0.565,-0.332,-0.325,-0.096,-0.03,-0.243,0.31,0.773,-0.182
'0:01.019',1.022,2.072,1.05,-1.548,-0.013,1.561,-0.575,-0.334,-0.323,-0.098,-0.033,-0.248,0.311,0.773,-0.183
'0:01.020',1.027,2.071,1.044,-1.549,-0.009,1.558,-0.582,-0.339,-0.327,-0.101,-0.034,-0.249,0.313,0.77,-0.183
'0:01.021',1.034,2.078,1.044,-1.557,-0.005,1.562,-0.584,-0.327,-0.323,-0.101,-0.034,-0.248,0.312,0.772,-0.181
'0:01.022',1.03,2.09,1.06,-1.56,-0.015,1.575,-0.575,-0.312,-0.313,-0.097,-0.029,-0.245,0.309,0.775,-0.183
'0:01.023',1.018,2.086,1.068,-1.552,-0.025,1.577,-0.57,-0.306,-0.312,-0.1,-0.031,-0.245,0.302,0.777,-0.183
'0:01.024',1.015,2.086,1.071,-1.55,-0.029,1.579,-0.565,-0.313,-0.317,-0.104,-0.032,-0.247,0.299,0.779,-0.18
'0:01.025',1.016,2.09,1.073,-1.554,-0.029,1.581,-0.561,-0.32,-0.321,-0.105,-0.032,-0.248,0.298,0.78,-0.18
'0:01.026',1.016,2.087,1.072,-1.552,-0.029,1.58,-0.568,-0.324,-0.329,-0.115,-0.04,-0.254,0.296,0.777,-0.179
'0:01.027',1.026,2.091,1.066,-1.56,-0.021,1.579,-0.577,-0.324,-0.334,-0.12,-0.042,-0.254,0.299,0.777,-0.175
'0:01.028',1.029,2.089,1.06,-1.56,-0.015,1.575,-0.585,-0.317,-0.335,-0.12,-0.042,-0.253,0.299,0.78,-0.174
'0:01.029',1.025,2.084,1.06,-1.555,-0.018,1.573,-0.583,-0.319,-0.342,-0.126,-0.044,-0.256,0.295,0.775,-0.173
'0:01.030',1.025,2.083,1.058,-1.554,-0.017,1.571,-0.577,-0.331,-0.353,-0.138,-0.053,-0.262,0.29,0.768,-0.173
'0:01.031',1.02,2.076,1.056,-1.548,-0.018,1.567,-0.575,-0.325,-0.353,-0.141,-0.051,-0.259,0.294,0.768,-0.175
'0:01.032',1.018,2.082,1.065,-1.55,-0.024,1.573,-0.572,-0.303,-0.343,-0.132,-0.043,-0.252,0.301,0.774,-0.18
'0:01.033',1.024,2.083,1.06,-1.554,-0.018,1.572,-0.566,-0.297,-0.346,-0.14,-0.054,-0.261,0.294,0.773,-0.189
'0:01.034',1.034,2.083,1.05,-1.558,-0.008,1.567,-0.563,-0.308,-0.357,-0.148,-0.059,-0.266,0.291,0.777,-0.192
'0:01.035',1.039,2.084,1.046,-1.562,-0.004,1.565,-0.551,-0.314,-0.356,-0.145,-0.059,-0.264,0.292,0.777,-0.193
'0:01.036',1.036,2.084,1.048,-1.56,-0.007,1.567,-0.541,-0.319,-0.354,-0.145,-0.058,-0.264,0.292,0.775,-0.193
'0:01.037',1.03,2.09,1.06,-1.56,-0.015,1.575,-0.543,-0.335,-0.359,-0.144,-0.051,-0.259,0.296,0.783,-0.195
'0:01.038',1.018,2.086,1.067,-1.552,-0.025,1.577,-0.538,-0.339,-0.359,-0.136,-0.041,-0.252,0.302,0.783,-0.196
'0:01.039',1.008,2.087,1.079,-1.548,-0.035,1.583,-0.529,-0.336,-0.355,-0.125,-0.032,-0.243,0.305,0.785,-0.198
'0:01.040',1.008,2.085,1.077,-1.547,-0.035,1.581,-0.533,-0.351,-0.363,-0.129,-0.038,-0.249,0.299,0.782,-0.194
'0:01.041',1.012,2.075,1.063,-1.544,-0.025,1.57,-0.54,-0.364,-0.377,-0.137,-0.049,-0.26,0.293,0.771,-0.186
'0:01.042',1.018,2.074,1.056,-1.546,-0.019,1.565,-0.548,-0.358,-0.377,-0.133,-0.048,-0.26,0.296,0.771,-0.186
'0:01.043',1.015,2.075,1.06,-1.546,-0.023,1.568,-0.553,-0.343,-0.361,-0.119,-0.041,-0.253,0.304,0.776,-0.184
'0:01.044',1.011,2.076,1.065,-1.544,-0.028,1.571,-0.56,-0.328,-0.344,-0.106,-0.034,-0.246,0.308,0.774,-0.18
'0:01.045',1.02,2.078,1.058,-1.549,-0.019,1.568,-0.575,-0.33,-0.349,-0.108,-0.031,-0.244,0.31,0.768,-0.175
'0:01.046',1.015,2.073,1.058,-1.545,-0.022,1.566,-0.575,-0.334,-0.349,-0.107,-0.026,-0.241,0.311,0.768,-0.173
'0:01.047',1.002,2.07,1.067,-1.536,-0.033,1.569,-0.572,-0.336,-0.352,-0.108,-0.029,-0.244,0.306,0.765,-0.174
'0:01.048',1.015,2.074,1.059,-1.544,-0.022,1.567,-0.574,-0.338,-0.352,-0.111,-0.032,-0.244,0.31,0.766,-0.168
'0:01.049',1.021,2.075,1.054,-1.548,-0.017,1.565,-0.572,-0.321,-0.331,-0.101,-0.026,-0.239,0.318,0.774,-0.169
'0:01.050',1.012,2.075,1.062,-1.544,-0.025,1.569,-0.568,-0.317,-0.329,-0.101,-0.031,-0.244,0.311,0.778,-0.177
'0:01.051',1.014,2.078,1.063,-1.546,-0.025,1.571,-0.565,-0.331,-0.34,-0.107,-0.033,-0.246,0.307,0.775,-0.18
'0:01.052',1.01,2.07,1.06,-1.54,-0.025,1.565,-0.565,-0.339,-0.346,-0.114,-0.036,-0.249,0.306,0.773,-0.18
'0:01.053',1.004,2.063,1.06,-1.534,-0.028,1.562,-0.57,-0.34,-0.343,-0.116,-0.042,-0.258,0.303,0.769,-0.179
'0:01.054',1.019,2.076,1.057,-1.548,-0.019,1.567,-0.566,-0.338,-0.337,-0.114,-0.041,-0.257,0.299,0.767,-0.177
'0:01.055',1.044,2.086,1.042,-1.565,0,1.565,-0.566,-0.343,-0.335,-0.112,-0.034,-0.249,0.304,0.766,-0.176
'0:01.056',1.036,2.079,1.044,-1.558,-0.004,1.562,-0.57,-0.339,-0.334,-0.106,-0.025,-0.241,0.31,0.768,-0.179
'0:01.057',1.024,2.078,1.054,-1.551,-0.015,1.566,-0.575,-0.34,-0.34,-0.114,-0.034,-0.252,0.302,0.771,-0.178
'0:01.058',1.028,2.078,1.05,-1.554,-0.011,1.565,-0.587,-0.344,-0.35,-0.129,-0.048,-0.262,0.295,0.77,-0.174
'0:01.059',1.026,2.079,1.052,-1.554,-0.013,1.566,-0.591,-0.333,-0.355,-0.133,-0.052,-0.263,0.293,0.773,-0.175
'0:01.060',1.028,2.088,1.06,-1.559,-0.017,1.575,-0.585,-0.327,-0.35,-0.129,-0.051,-0.26,0.296,0.78,-0.176
'0:01.061',1.018,2.096,1.079,-1.558,-0.03,1.588,-0.569,-0.322,-0.344,-0.125,-0.048,-0.258,0.292,0.783,-0.184
'0:01.062',1.009,2.1,1.092,-1.555,-0.042,1.597,-0.56,-0.316,-0.339,-0.123,-0.045,-0.257,0.29,0.788,-0.189
'0:01.063',1.018,2.107,1.089,-1.563,-0.035,1.598,-0.559,-0.317,-0.34,-0.126,-0.045,-0.254,0.294,0.793,-0.186
'0:01.064',1.02,2.103,1.084,-1.562,-0.033,1.593,-0.559,-0.323,-0.351,-0.135,-0.05,-0.255,0.292,0.79,-0.185
'0:01.065',1.012,2.087,1.077,-1.55,-0.033,1.582,-0.56,-0.321,-0.36,-0.143,-0.052,-0.257,0.288,0.781,-0.185
'0:01.066',1.012,2.084,1.073,-1.548,-0.031,1.579,-0.557,-0.317,-0.359,-0.141,-0.053,-0.257,0.29,0.779,-0.185
'0:01.067',1.012,2.09,1.079,-1.551,-0.034,1.584,-0.552,-0.317,-0.357,-0.138,-0.054,-0.259,0.291,0.785,-0.189
'0:01.068',1.01,2.093,1.083,-1.552,-0.037,1.589,-0.545,-0.319,-0.36,-0.138,-0.055,-0.259,0.29,0.788,-0.191
'0:01.069',1.016,2.095,1.081,-1.556,-0.033,1.589,-0.542,-0.325,-0.366,-0.135,-0.053,-0.26,0.293,0.782,-0.191
'0:01.070',1.019,2.094,1.075,-1.556,-0.029,1.585,-0.539,-0.341,-0.374,-0.138,-0.058,-0.263,0.294,0.777,-0.189
'0:01.071',1.018,2.089,1.072,-1.554,-0.028,1.581,-0.542,-0.355,-0.379,-0.137,-0.056,-0.262,0.297,0.782,-0.188
'0:01.072',1.021,2.089,1.069,-1.556,-0.024,1.579,-0.542,-0.362,-0.37,-0.131,-0.053,-0.262,0.3,0.781,-0.189
'0:01.073',1.032,2.097,1.065,-1.565,-0.017,1.581,-0.543,-0.359,-0.361,-0.128,-0.052,-0.26,0.303,0.777,-0.187
'0:01.074',1.039,2.094,1.055,-1.567,-0.008,1.575,-0.551,-0.346,-0.345,-0.115,-0.04,-0.25,0.315,0.776,-0.186
'0:01.075',1.036,2.092,1.056,-1.565,-0.011,1.575,-0.554,-0.34,-0.34,-0.114,-0.038,-0.248,0.317,0.776,-0.185
'0:01.076',1.038,2.097,1.059,-1.568,-0.011,1.578,-0.563,-0.34,-0.346,-0.122,-0.043,-0.254,0.317,0.769,-0.18
'0:01.077',1.038,2.096,1.058,-1.567,-0.011,1.577,-0.566,-0.327,-0.331,-0.115,-0.035,-0.249,0.318,0.771,-0.18
'0:01.078',1.033,2.104,1.072,-1.569,-0.02,1.589,-0.557,-0.326,-0.328,-0.111,-0.029,-0.243,0.321,0.78,-0.183
'0:01.079',1.042,2.11,1.068,-1.577,-0.013,1.589,-0.553,-0.336,-0.335,-0.109,-0.023,-0.237,0.33,0.779,-0.185
'0:01.080',1.05,2.111,1.061,-1.581,-0.005,1.586,-0.549,-0.332,-0.33,-0.101,-0.017,-0.234,0.334,0.781,-0.185
'0:01.081',1.046,2.119,1.073,-1.583,-0.014,1.597,-0.545,-0.327,-0.326,-0.096,-0.017,-0.234,0.333,0.792,-0.191
'0:01.082',1.05,2.124,1.075,-1.588,-0.013,1.6,-0.543,-0.325,-0.33,-0.101,-0.019,-0.234,0.331,0.792,-0.192
'0:01.083',1.054,2.126,1.073,-1.59,-0.009,1.599,-0.545,-0.338,-0.337,-0.108,-0.022,-0.235,0.329,0.792,-0.189
'0:01.084',1.053,2.128,1.076,-1.591,-0.011,1.603,-0.548,-0.334,-0.335,-0.105,-0.018,-0.233,0.333,0.794,-0.19
'0:01.085',1.067,2.129,1.063,-1.598,0.002,1.597,-0.546,-0.303,-0.329,-0.103,-0.015,-0.231,0.339,0.789,-0.193
'0:01.086',1.079,2.131,1.052,-1.605,0.013,1.592,-0.551,-0.277,-0.317,-0.1,-0.015,-0.228,0.345,0.791,-0.199
'0:01.087',1.075,2.133,1.058,-1.605,0.009,1.596,-0.556,-0.261,-0.309,-0.093,-0.012,-0.228,0.346,0.796,-0.2
'0:01.088',1.073,2.139,1.066,-1.605,0.004,1.603,-0.542,-0.264,-0.316,-0.1,-0.015,-0.231,0.344,0.8,-0.2
'0:01.089',1.077,2.142,1.066,-1.609,0.005,1.605,-0.529,-0.268,-0.322,-0.106,-0.018,-0.232,0.348,0.803,-0.201
'0:01.090',1.087,2.143,1.056,-1.615,0.015,1.601,-0.52,-0.27,-0.323,-0.104,-0.019,-0.231,0.347,0.797,-0.205
'0:01.091',1.083,2.149,1.065,-1.616,0.009,1.607,-0.508,-0.27,-0.314,-0.091,-0.011,-0.221,0.351,0.801,-0.212
'0:01.092',1.066,2.155,1.091,-1.611,-0.013,1.623,-0.496,-0.267,-0.301,-0.074,0,-0.214,0.355,0.812,-0.215
'0:01.093',1.071,2.159,1.089,-1.615,-0.01,1.625,-0.496,-0.271,-0.293,-0.065,-0.001,-0.214,0.359,0.819,-0.213
'0:01.094',1.069,2.159,1.09,-1.614,-0.011,1.625,-0.501,-0.28,-0.293,-0.06,0.003,-0.213,0.364,0.828,-0.21
'0:01.095',1.065,2.16,1.095,-1.613,-0.015,1.628,-0.505,-0.29,-0.296,-0.058,0.005,-0.213,0.363,0.831,-0.209
'0:01.096',1.074,2.161,1.087,-1.617,-0.007,1.625,-0.513,-0.3,-0.291,-0.054,0.009,-0.209,0.367,0.83,-0.206
'0:01.097',1.081,2.162,1.083,-1.621,-0.002,1.623,-0.524,-0.298,-0.286,-0.051,0.013,-0.206,0.373,0.827,-0.202
'0:01.098',1.081,2.163,1.083,-1.623,-0.001,1.623,-0.535,-0.287,-0.286,-0.051,0.011,-0.206,0.375,0.825,-0.198
'0:01.099',1.079,2.163,1.085,-1.621,-0.003,1.623,-0.537,-0.287,-0.28,-0.045,0.013,-0.205,0.378,0.828,-0.195
'0:01.100',1.081,2.162,1.08,-1.621,0.001,1.621,-0.539,-0.274,-0.265,-0.038,0.017,-0.204,0.382,0.824,-0.192
'0:01.101',1.087,2.166,1.079,-1.627,0.004,1.623,-0.54,-0.252,-0.248,-0.033,0.021,-0.202,0.383,0.827,-0.193
'0:01.102',1.083,2.165,1.082,-1.624,0,1.624,-0.542,-0.245,-0.247,-0.035,0.023,-0.199,0.386,0.834,-0.192
'0:01.103',1.083,2.167,1.085,-1.625,-0.001,1.626,-0.54,-0.238,-0.252,-0.038,0.025,-0.197,0.389,0.838,-0.193
'0:01.104',1.101,2.178,1.077,-1.639,0.011,1.628,-0.536,-0.23,-0.249,-0.038,0.029,-0.193,0.39,0.831,-0.196
'0:01.105',1.105,2.183,1.079,-1.644,0.013,1.631,-0.536,-0.234,-0.251,-0.042,0.03,-0.193,0.389,0.834,-0.198
'0:01.106',1.102,2.187,1.085,-1.645,0.008,1.637,-0.532,-0.245,-0.257,-0.043,0.03,-0.193,0.389,0.845,-0.2
'0:01.107',1.109,2.193,1.083,-1.651,0.013,1.639,-0.531,-0.253,-0.262,-0.043,0.033,-0.191,0.395,0.845,-0.197
'0:01.108',1.113,2.201,1.089,-1.657,0.012,1.645,-0.522,-0.255,-0.26,-0.036,0.04,-0.186,0.4,0.85,-0.198
'0:01.109',1.111,2.202,1.091,-1.657,0.009,1.647,-0.515,-0.256,-0.256,-0.028,0.045,-0.183,0.402,0.851,-0.203
'0:01.110',1.12,2.204,1.084,-1.662,0.018,1.644,-0.517,-0.256,-0.252,-0.021,0.048,-0.18,0.407,0.847,-0.203
'0:01.111',1.132,2.207,1.076,-1.669,0.028,1.642,-0.523,-0.261,-0.253,-0.024,0.044,-0.183,0.406,0.846,-0.201
'0:01.112',1.129,2.2,1.071,-1.665,0.029,1.635,-0.533,-0.266,-0.257,-0.029,0.037,-0.191,0.402,0.842,-0.199
'0:01.113',1.121,2.182,1.062,-1.651,0.029,1.622,-0.544,-0.26,-0.263,-0.037,0.03,-0.197,0.398,0.826,-0.194
'0:01.114',1.113,2.174,1.062,-1.643,0.025,1.618,-0.549,-0.255,-0.264,-0.043,0.027,-0.198,0.394,0.816,-0.19
'0:01.115',1.107,2.184,1.077,-1.645,0.015,1.631,-0.546,-0.244,-0.243,-0.033,0.034,-0.192,0.396,0.825,-0.194
'0:01.116',1.103,2.184,1.082,-1.643,0.01,1.633,-0.552,-0.249,-0.248,-0.045,0.022,-0.199,0.387,0.831,-0.193
'0:01.117',1.092,2.17,1.079,-1.631,0.006,1.625,-0.559,-0.259,-0.264,-0.061,0.011,-0.205,0.381,0.822,-0.187
'0:01.118',1.087,2.163,1.078,-1.625,0.004,1.621,-0.565,-0.26,-0.268,-0.067,0.005,-0.208,0.377,0.82,-0.182
'0:01.119',1.091,2.164,1.074,-1.627,0.008,1.619,-0.571,-0.272,-0.285,-0.085,-0.009,-0.216,0.369,0.825,-0.176
'0:01.120',1.095,2.17,1.075,-1.633,0.009,1.623,-0.569,-0.281,-0.297,-0.092,-0.013,-0.217,0.365,0.831,-0.173
'0:01.121',1.107,2.196,1.089,-1.652,0.009,1.643,-0.555,-0.283,-0.297,-0.084,-0.002,-0.207,0.363,0.851,-0.179
'0:01.122',1.109,2.207,1.098,-1.658,0.005,1.653,-0.542,-0.289,-0.299,-0.075,0.009,-0.199,0.367,0.858,-0.177
'0:01.123',1.103,2.197,1.095,-1.65,0.004,1.646,-0.554,-0.308,-0.319,-0.085,0.005,-0.202,0.368,0.852,-0.164
'0:01.124',1.103,2.196,1.093,-1.65,0.005,1.645,-0.568,-0.31,-0.322,-0.088,0.004,-0.201,0.373,0.852,-0.158
'0:01.125',1.102,2.197,1.095,-1.65,0.003,1.647,-0.572,-0.301,-0.308,-0.08,0.005,-0.2,0.377,0.856,-0.157
