'Elapsed time','i','ii','iii','avr','avl','avf','v1','v2','v3','v4','v5','v6','vx','vy','vz'
'hh:mm:ss.mmm','mV','mV','mV','mV','mV','mV','mV','mV','mV','mV','mV','mV','mV','mV','mV'
0,-0.033,0.359,0.392,-0.163,-0.212,0.375,0.552,0.194,0.883,0.491,0.515,0.614,0.337,-0.297,0.108
0.001,-0.022,0.363,0.386,-0.17,-0.204,0.374,0.544,0.186,0.878,0.488,0.515,0.614,0.339,-0.296,0.106
0.002,-0.034,0.357,0.391,-0.161,-0.212,0.373,0.544,0.189,0.877,0.488,0.51,0.614,0.334,-0.299,0.11
0.003,-0.025,0.348,0.373,-0.161,-0.2,0.36,0.56,0.201,0.887,0.5,0.52,0.623,0.333,-0.311,0.109
0.004,-0.025,0.344,0.368,-0.16,-0.197,0.356,0.559,0.201,0.889,0.504,0.527,0.624,0.334,-0.311,0.11
0.005,-0.038,0.344,0.383,-0.152,-0.211,0.362,0.555,0.2,0.886,0.499,0.521,0.618,0.33,-0.308,0.109
0.006,-0.033,0.351,0.385,-0.159,-0.209,0.367,0.555,0.203,0.888,0.5,0.525,0.62,0.328,-0.303,0.107
0.007,-0.032,0.359,0.391,-0.164,-0.211,0.375,0.549,0.197,0.885,0.498,0.527,0.621,0.325,-0.298,0.106
0.008,-0.042,0.372,0.414,-0.165,-0.228,0.393,0.546,0.191,0.88,0.491,0.521,0.614,0.321,-0.285,0.104
0.009,-0.048,0.371,0.419,-0.161,-0.234,0.395,0.55,0.195,0.883,0.494,0.522,0.616,0.323,-0.282,0.105
0.01,-0.044,0.358,0.404,-0.157,-0.224,0.381,0.551,0.197,0.883,0.494,0.521,0.616,0.322,-0.291,0.108
0.011,-0.018,0.359,0.378,-0.171,-0.198,0.368,0.561,0.203,0.887,0.498,0.529,0.623,0.323,-0.298,0.109
0.012,-0.004,0.371,0.375,-0.183,-0.19,0.373,0.571,0.206,0.89,0.5,0.535,0.631,0.324,-0.294,0.111
0.013,-0.008,0.381,0.389,-0.186,-0.199,0.385,0.568,0.201,0.884,0.491,0.531,0.625,0.323,-0.287,0.113
0.014,-0.007,0.373,0.381,-0.182,-0.195,0.377,0.571,0.201,0.883,0.493,0.532,0.625,0.321,-0.293,0.11
0.015,-0.004,0.373,0.377,-0.184,-0.191,0.374,0.568,0.199,0.882,0.495,0.531,0.624,0.32,-0.297,0.11
0.016,-0.001,0.358,0.358,-0.178,-0.179,0.358,0.561,0.202,0.88,0.491,0.53,0.621,0.324,-0.315,0.114
0.017,0.001,0.359,0.358,-0.179,-0.178,0.358,0.558,0.198,0.877,0.488,0.527,0.621,0.326,-0.314,0.116
0.018,-0.001,0.379,0.379,-0.189,-0.19,0.379,0.557,0.191,0.874,0.484,0.519,0.613,0.329,-0.297,0.117
0.019,-0.006,0.359,0.364,-0.176,-0.185,0.361,0.561,0.196,0.875,0.485,0.52,0.615,0.328,-0.301,0.117
0.02,-0.004,0.352,0.356,-0.173,-0.18,0.354,0.572,0.209,0.889,0.498,0.531,0.627,0.327,-0.311,0.113
0.021,-0.017,0.353,0.37,-0.168,-0.194,0.362,0.581,0.22,0.896,0.505,0.534,0.634,0.329,-0.314,0.113
0.022,-0.021,0.357,0.378,-0.168,-0.2,0.367,0.584,0.22,0.894,0.507,0.533,0.634,0.327,-0.31,0.114
0.023,-0.011,0.371,0.382,-0.179,-0.197,0.376,0.578,0.217,0.888,0.504,0.528,0.629,0.325,-0.306,0.114
0.024,-0.017,0.362,0.38,-0.172,-0.199,0.371,0.571,0.212,0.882,0.498,0.521,0.624,0.324,-0.304,0.114
0.025,-0.015,0.353,0.368,-0.169,-0.192,0.36,0.569,0.21,0.881,0.496,0.519,0.623,0.322,-0.304,0.113
0.026,-0.01,0.344,0.353,-0.167,-0.181,0.349,0.575,0.217,0.887,0.498,0.522,0.625,0.323,-0.31,0.113
0.027,-0.004,0.347,0.35,-0.172,-0.177,0.348,0.568,0.211,0.882,0.493,0.517,0.623,0.327,-0.307,0.114
0.028,-0.015,0.354,0.368,-0.17,-0.192,0.361,0.555,0.199,0.87,0.481,0.506,0.613,0.33,-0.297,0.116
0.029,-0.038,0.344,0.382,-0.152,-0.21,0.362,0.555,0.2,0.872,0.48,0.505,0.612,0.328,-0.302,0.117
0.03,-0.035,0.344,0.38,-0.154,-0.207,0.361,0.561,0.207,0.878,0.484,0.509,0.615,0.327,-0.304,0.116
0.031,-0.029,0.371,0.4,-0.171,-0.214,0.386,0.566,0.212,0.883,0.484,0.513,0.618,0.328,-0.288,0.115
0.032,-0.029,0.398,0.426,-0.184,-0.228,0.412,0.562,0.206,0.877,0.476,0.506,0.61,0.327,-0.267,0.115
0.033,-0.025,0.381,0.406,-0.177,-0.216,0.394,0.564,0.203,0.875,0.47,0.501,0.606,0.325,-0.273,0.116
0.034,-0.029,0.369,0.398,-0.17,-0.213,0.383,0.569,0.205,0.874,0.469,0.5,0.606,0.322,-0.277,0.117
0.035,-0.037,0.364,0.402,-0.163,-0.22,0.383,0.572,0.206,0.875,0.471,0.501,0.604,0.322,-0.275,0.117
0.036,-0.04,0.351,0.391,-0.155,-0.215,0.371,0.577,0.215,0.885,0.481,0.51,0.608,0.325,-0.289,0.117
0.037,-0.045,0.355,0.4,-0.155,-0.223,0.378,0.585,0.222,0.89,0.486,0.513,0.61,0.329,-0.291,0.117
0.038,-0.038,0.352,0.391,-0.157,-0.215,0.371,0.586,0.218,0.889,0.485,0.514,0.616,0.331,-0.298,0.119
0.039,-0.034,0.344,0.378,-0.154,-0.206,0.36,0.58,0.215,0.886,0.484,0.512,0.626,0.337,-0.305,0.121
0.04,-0.035,0.344,0.379,-0.154,-0.207,0.361,0.579,0.22,0.884,0.482,0.51,0.63,0.339,-0.298,0.118
0.041,-0.05,0.336,0.386,-0.142,-0.218,0.36,0.587,0.226,0.887,0.484,0.508,0.626,0.332,-0.302,0.114
0.042,-0.075,0.328,0.404,-0.126,-0.24,0.366,0.586,0.221,0.882,0.481,0.5,0.619,0.327,-0.308,0.114
0.043,-0.072,0.348,0.42,-0.138,-0.246,0.384,0.588,0.22,0.881,0.484,0.501,0.619,0.327,-0.304,0.115
0.044,-0.061,0.354,0.416,-0.146,-0.239,0.386,0.594,0.225,0.888,0.493,0.51,0.626,0.327,-0.304,0.115
0.045,-0.048,0.339,0.386,-0.144,-0.217,0.362,0.596,0.22,0.889,0.497,0.517,0.631,0.328,-0.313,0.119
0.046,-0.045,0.334,0.38,-0.143,-0.212,0.356,0.589,0.212,0.88,0.489,0.512,0.624,0.325,-0.318,0.119
0.047,-0.045,0.362,0.407,-0.159,-0.227,0.385,0.562,0.189,0.857,0.465,0.492,0.607,0.324,-0.298,0.121
0.048,-0.038,0.383,0.421,-0.172,-0.23,0.402,0.551,0.179,0.848,0.458,0.487,0.604,0.326,-0.281,0.124
0.049,-0.041,0.378,0.419,-0.168,-0.23,0.398,0.561,0.193,0.858,0.469,0.494,0.614,0.324,-0.283,0.122
0.05,-0.037,0.368,0.405,-0.165,-0.221,0.386,0.571,0.202,0.866,0.476,0.501,0.624,0.323,-0.295,0.122
0.051,-0.033,0.361,0.394,-0.164,-0.214,0.377,0.579,0.21,0.872,0.482,0.508,0.63,0.322,-0.298,0.123
0.052,-0.033,0.343,0.377,-0.154,-0.205,0.359,0.585,0.217,0.878,0.485,0.511,0.631,0.321,-0.304,0.124
0.053,-0.035,0.339,0.374,-0.151,-0.205,0.356,0.584,0.216,0.877,0.48,0.507,0.626,0.322,-0.304,0.125
0.054,-0.035,0.381,0.416,-0.172,-0.226,0.398,0.573,0.203,0.865,0.467,0.493,0.613,0.32,-0.271,0.123
0.055,-0.028,0.381,0.408,-0.176,-0.218,0.394,0.582,0.209,0.87,0.473,0.497,0.615,0.319,-0.272,0.122
0.056,-0.023,0.384,0.406,-0.18,-0.215,0.395,0.591,0.212,0.87,0.476,0.498,0.617,0.323,-0.274,0.123
0.057,-0.019,0.412,0.431,-0.197,-0.226,0.422,0.581,0.202,0.859,0.467,0.487,0.61,0.334,-0.258,0.126
0.058,-0.009,0.411,0.42,-0.201,-0.215,0.415,0.573,0.194,0.852,0.46,0.48,0.602,0.336,-0.26,0.129
0.059,-0.019,0.403,0.422,-0.191,-0.221,0.412,0.565,0.19,0.848,0.456,0.476,0.598,0.335,-0.26,0.131
0.06,-0.049,0.388,0.436,-0.169,-0.242,0.411,0.569,0.195,0.85,0.461,0.479,0.6,0.332,-0.267,0.128
0.061,-0.056,0.371,0.426,-0.158,-0.241,0.399,0.582,0.204,0.859,0.47,0.486,0.607,0.325,-0.275,0.122
0.062,-0.052,0.349,0.402,-0.147,-0.228,0.375,0.595,0.215,0.871,0.485,0.497,0.617,0.321,-0.289,0.12
0.063,-0.053,0.353,0.406,-0.149,-0.23,0.379,0.599,0.22,0.873,0.488,0.497,0.616,0.317,-0.288,0.118
0.064,-0.049,0.355,0.404,-0.152,-0.227,0.38,0.593,0.218,0.871,0.487,0.496,0.617,0.316,-0.289,0.118
0.065,-0.054,0.34,0.394,-0.142,-0.224,0.366,0.59,0.217,0.87,0.486,0.494,0.615,0.314,-0.297,0.114
0.066,-0.044,0.348,0.393,-0.151,-0.22,0.37,0.588,0.212,0.865,0.481,0.489,0.611,0.314,-0.293,0.11
0.067,-0.03,0.372,0.403,-0.171,-0.216,0.387,0.582,0.203,0.857,0.473,0.485,0.609,0.315,-0.283,0.11
0.068,-0.042,0.376,0.418,-0.167,-0.23,0.397,0.582,0.209,0.86,0.475,0.486,0.608,0.315,-0.28,0.112
0.069,-0.051,0.354,0.405,-0.151,-0.228,0.379,0.574,0.204,0.859,0.475,0.486,0.608,0.314,-0.289,0.117
0.07,-0.047,0.349,0.397,-0.15,-0.222,0.373,0.561,0.193,0.85,0.467,0.478,0.602,0.316,-0.291,0.119
0.071,-0.043,0.355,0.399,-0.155,-0.221,0.377,0.561,0.189,0.846,0.462,0.475,0.601,0.319,-0.291,0.12
0.072,-0.04,0.346,0.386,-0.152,-0.212,0.365,0.563,0.187,0.845,0.459,0.476,0.604,0.317,-0.294,0.121
0.073,-0.033,0.36,0.393,-0.163,-0.213,0.376,0.561,0.191,0.846,0.458,0.478,0.605,0.316,-0.286,0.12
0.074,-0.023,0.397,0.419,-0.186,-0.222,0.408,0.556,0.188,0.844,0.455,0.475,0.599,0.316,-0.266,0.12
0.075,-0.022,0.404,0.426,-0.19,-0.225,0.414,0.557,0.19,0.845,0.456,0.475,0.602,0.319,-0.264,0.122
0.076,-0.024,0.398,0.421,-0.187,-0.223,0.409,0.565,0.2,0.854,0.465,0.483,0.611,0.321,-0.274,0.12
0.077,-0.027,0.386,0.413,-0.179,-0.221,0.4,0.571,0.204,0.859,0.472,0.489,0.615,0.324,-0.278,0.12
0.078,-0.03,0.376,0.406,-0.172,-0.218,0.39,0.575,0.206,0.861,0.473,0.492,0.62,0.325,-0.281,0.12
0.079,-0.028,0.397,0.424,-0.184,-0.226,0.41,0.568,0.2,0.853,0.467,0.483,0.613,0.324,-0.27,0.12
0.08,-0.036,0.399,0.435,-0.181,-0.236,0.417,0.561,0.199,0.852,0.465,0.479,0.611,0.324,-0.261,0.12
0.081,-0.043,0.369,0.411,-0.163,-0.228,0.39,0.575,0.211,0.864,0.478,0.491,0.623,0.324,-0.277,0.118
0.082,-0.041,0.365,0.406,-0.162,-0.224,0.386,0.577,0.208,0.862,0.48,0.489,0.623,0.322,-0.285,0.118
0.083,-0.043,0.358,0.402,-0.158,-0.223,0.38,0.574,0.199,0.854,0.474,0.481,0.62,0.317,-0.283,0.122
0.084,-0.05,0.335,0.384,-0.142,-0.217,0.359,0.576,0.198,0.851,0.472,0.481,0.623,0.318,-0.292,0.126
0.085,-0.047,0.335,0.382,-0.143,-0.214,0.358,0.578,0.195,0.852,0.471,0.481,0.623,0.318,-0.293,0.124
0.086,-0.043,0.339,0.382,-0.147,-0.212,0.359,0.577,0.195,0.853,0.471,0.482,0.62,0.317,-0.288,0.124
0.087,-0.043,0.333,0.376,-0.144,-0.209,0.354,0.574,0.193,0.851,0.469,0.479,0.616,0.316,-0.292,0.122
0.088,-0.033,0.349,0.383,-0.158,-0.208,0.365,0.568,0.184,0.844,0.464,0.473,0.609,0.316,-0.282,0.12
0.089,-0.026,0.373,0.399,-0.173,-0.213,0.386,0.563,0.18,0.84,0.458,0.469,0.603,0.317,-0.274,0.117
0.09,-0.034,0.39,0.423,-0.177,-0.229,0.406,0.568,0.19,0.847,0.463,0.475,0.608,0.316,-0.269,0.113
0.091,-0.037,0.383,0.42,-0.172,-0.229,0.402,0.575,0.195,0.85,0.464,0.479,0.61,0.315,-0.272,0.113
0.092,-0.029,0.354,0.384,-0.162,-0.206,0.368,0.58,0.195,0.85,0.463,0.481,0.614,0.316,-0.295,0.115
0.093,-0.021,0.369,0.391,-0.173,-0.206,0.38,0.576,0.191,0.847,0.459,0.479,0.612,0.319,-0.284,0.115
0.094,-0.004,0.395,0.398,-0.196,-0.201,0.396,0.574,0.189,0.848,0.456,0.479,0.611,0.32,-0.27,0.115
0.095,-0.007,0.396,0.403,-0.194,-0.205,0.399,0.58,0.195,0.854,0.464,0.489,0.617,0.322,-0.271,0.116
0.096,-0.034,0.391,0.423,-0.178,-0.229,0.406,0.579,0.193,0.852,0.464,0.486,0.613,0.322,-0.266,0.117
0.097,-0.059,0.343,0.402,-0.142,-0.23,0.372,0.579,0.198,0.858,0.47,0.493,0.616,0.325,-0.289,0.118
0.098,-0.076,0.304,0.381,-0.114,-0.229,0.342,0.572,0.192,0.853,0.466,0.491,0.615,0.33,-0.305,0.122
0.099,-0.08,0.314,0.394,-0.117,-0.237,0.353,0.561,0.181,0.842,0.457,0.48,0.605,0.327,-0.298,0.124
0.1,-0.055,0.35,0.405,-0.147,-0.231,0.378,0.562,0.184,0.844,0.458,0.482,0.607,0.323,-0.284,0.123
0.101,-0.012,0.392,0.404,-0.19,-0.208,0.398,0.579,0.193,0.853,0.468,0.487,0.617,0.32,-0.276,0.121
0.102,-0.002,0.4,0.401,-0.199,-0.202,0.4,0.59,0.201,0.862,0.479,0.499,0.623,0.322,-0.283,0.121
0.103,-0.007,0.392,0.399,-0.193,-0.203,0.395,0.584,0.195,0.854,0.473,0.487,0.61,0.32,-0.287,0.121
0.104,0.004,0.407,0.404,-0.205,-0.2,0.405,0.582,0.192,0.852,0.47,0.481,0.605,0.319,-0.282,0.119
0.105,0.005,0.415,0.409,-0.21,-0.202,0.412,0.575,0.189,0.849,0.467,0.481,0.606,0.32,-0.274,0.122
0.106,-0.028,0.398,0.425,-0.185,-0.227,0.411,0.566,0.185,0.848,0.465,0.48,0.602,0.32,-0.27,0.12
0.107,-0.046,0.385,0.431,-0.169,-0.239,0.407,0.573,0.194,0.858,0.473,0.492,0.61,0.328,-0.27,0.119
0.108,-0.045,0.364,0.409,-0.159,-0.228,0.387,0.576,0.191,0.857,0.475,0.497,0.614,0.329,-0.279,0.119
0.109,-0.054,0.34,0.394,-0.142,-0.224,0.366,0.567,0.176,0.846,0.466,0.49,0.608,0.327,-0.289,0.121
0.11,-0.046,0.349,0.396,-0.15,-0.222,0.372,0.551,0.167,0.837,0.455,0.482,0.6,0.327,-0.281,0.127
0.111,-0.033,0.372,0.406,-0.17,-0.22,0.389,0.547,0.165,0.835,0.453,0.482,0.596,0.329,-0.268,0.126
0.112,-0.028,0.388,0.416,-0.179,-0.223,0.402,0.55,0.164,0.836,0.45,0.483,0.597,0.33,-0.261,0.126
0.113,-0.034,0.399,0.432,-0.181,-0.234,0.415,0.56,0.179,0.844,0.453,0.489,0.6,0.325,-0.251,0.121
0.114,-0.041,0.394,0.434,-0.176,-0.237,0.413,0.568,0.188,0.855,0.465,0.501,0.611,0.324,-0.249,0.117
0.115,-0.043,0.397,0.44,-0.176,-0.241,0.417,0.554,0.172,0.846,0.458,0.493,0.601,0.321,-0.245,0.117
0.116,-0.05,0.41,0.461,-0.179,-0.256,0.435,0.546,0.169,0.839,0.452,0.485,0.589,0.316,-0.236,0.116
0.117,-0.065,0.386,0.45,-0.16,-0.258,0.417,0.556,0.178,0.847,0.46,0.495,0.595,0.311,-0.252,0.112
0.118,-0.061,0.369,0.43,-0.154,-0.246,0.4,0.555,0.173,0.842,0.456,0.49,0.59,0.309,-0.269,0.114
0.119,-0.038,0.376,0.414,-0.169,-0.227,0.395,0.552,0.166,0.838,0.451,0.487,0.59,0.312,-0.278,0.117
0.12,-0.028,0.36,0.388,-0.166,-0.208,0.374,0.568,0.181,0.852,0.463,0.497,0.604,0.314,-0.29,0.116
0.121,-0.028,0.365,0.393,-0.169,-0.21,0.379,0.57,0.185,0.853,0.465,0.497,0.608,0.317,-0.289,0.117
0.122,-0.029,0.384,0.412,-0.176,-0.221,0.398,0.566,0.183,0.85,0.464,0.492,0.604,0.319,-0.279,0.117
0.123,-0.04,0.377,0.417,-0.168,-0.229,0.397,0.569,0.188,0.855,0.472,0.496,0.606,0.317,-0.283,0.115
0.124,-0.034,0.38,0.413,-0.172,-0.224,0.397,0.555,0.184,0.853,0.472,0.496,0.605,0.319,-0.287,0.116
0.125,-0.015,0.388,0.403,-0.186,-0.209,0.395,0.554,0.18,0.85,0.468,0.496,0.606,0.321,-0.282,0.119
0.126,-0.025,0.38,0.405,-0.177,-0.215,0.393,0.566,0.181,0.851,0.469,0.498,0.61,0.32,-0.279,0.117
0.127,-0.03,0.384,0.414,-0.176,-0.222,0.399,0.561,0.178,0.852,0.469,0.498,0.608,0.319,-0.274,0.117
0.128,-0.018,0.399,0.417,-0.19,-0.218,0.407,0.553,0.169,0.844,0.461,0.496,0.603,0.317,-0.268,0.118
0.129,-0.029,0.385,0.413,-0.177,-0.221,0.399,0.555,0.178,0.849,0.463,0.496,0.6,0.316,-0.277,0.117
0.13,-0.043,0.36,0.404,-0.159,-0.224,0.382,0.561,0.188,0.856,0.468,0.504,0.604,0.317,-0.291,0.116
0.131,-0.037,0.384,0.42,-0.172,-0.229,0.402,0.561,0.179,0.85,0.462,0.499,0.599,0.32,-0.277,0.116
0.132,-0.025,0.399,0.424,-0.186,-0.225,0.411,0.558,0.171,0.843,0.452,0.49,0.592,0.317,-0.266,0.117
0.133,-0.016,0.382,0.398,-0.182,-0.207,0.39,0.555,0.171,0.842,0.45,0.492,0.593,0.317,-0.276,0.12
0.134,-0.013,0.389,0.402,-0.188,-0.208,0.396,0.555,0.174,0.845,0.454,0.497,0.594,0.317,-0.27,0.117
0.135,-0.015,0.393,0.408,-0.189,-0.211,0.4,0.565,0.176,0.847,0.455,0.498,0.594,0.313,-0.264,0.114
0.136,-0.017,0.377,0.394,-0.179,-0.205,0.385,0.575,0.182,0.853,0.463,0.502,0.598,0.314,-0.276,0.113
0.137,-0.021,0.361,0.383,-0.17,-0.202,0.371,0.574,0.185,0.856,0.469,0.508,0.604,0.318,-0.286,0.114
0.138,-0.026,0.346,0.372,-0.159,-0.2,0.359,0.574,0.197,0.864,0.477,0.514,0.61,0.32,-0.295,0.115
0.139,-0.029,0.345,0.374,-0.158,-0.202,0.359,0.571,0.198,0.867,0.482,0.516,0.612,0.322,-0.298,0.115
0.14,-0.033,0.365,0.398,-0.166,-0.215,0.382,0.552,0.183,0.853,0.467,0.501,0.6,0.32,-0.285,0.117
0.141,-0.03,0.393,0.423,-0.181,-0.227,0.408,0.544,0.172,0.844,0.459,0.49,0.585,0.316,-0.273,0.116
0.142,-0.024,0.405,0.428,-0.19,-0.226,0.416,0.544,0.166,0.841,0.459,0.484,0.581,0.318,-0.268,0.117
0.143,-0.023,0.416,0.44,-0.197,-0.232,0.428,0.542,0.172,0.849,0.466,0.485,0.583,0.316,-0.267,0.118
0.144,-0.004,0.438,0.441,-0.216,-0.223,0.439,0.539,0.167,0.848,0.469,0.489,0.59,0.319,-0.266,0.121
0.145,0.004,0.422,0.418,-0.213,-0.207,0.42,0.544,0.165,0.847,0.465,0.488,0.597,0.324,-0.266,0.122
0.146,-0.005,0.409,0.414,-0.202,-0.209,0.411,0.554,0.173,0.853,0.469,0.491,0.599,0.323,-0.266,0.117
0.147,-0.018,0.399,0.416,-0.191,-0.217,0.407,0.558,0.176,0.857,0.471,0.493,0.602,0.324,-0.276,0.118
0.148,-0.025,0.389,0.413,-0.181,-0.219,0.401,0.545,0.169,0.852,0.466,0.489,0.6,0.327,-0.279,0.119
0.149,-0.013,0.395,0.407,-0.19,-0.21,0.401,0.541,0.16,0.843,0.455,0.482,0.595,0.327,-0.276,0.121
0.15,-0.004,0.392,0.395,-0.194,-0.2,0.393,0.555,0.17,0.85,0.458,0.48,0.595,0.326,-0.28,0.12
0.151,-0.001,0.405,0.405,-0.202,-0.203,0.404,0.554,0.165,0.845,0.454,0.476,0.587,0.327,-0.27,0.118
0.152,-0.002,0.414,0.415,-0.205,-0.209,0.415,0.557,0.167,0.845,0.449,0.474,0.588,0.323,-0.265,0.117
0.153,-0.004,0.414,0.417,-0.205,-0.21,0.415,0.564,0.176,0.851,0.453,0.477,0.59,0.321,-0.258,0.114
0.154,-0.017,0.405,0.422,-0.193,-0.22,0.413,0.563,0.172,0.854,0.456,0.482,0.591,0.322,-0.253,0.112
0.155,-0.031,0.395,0.426,-0.181,-0.229,0.41,0.562,0.172,0.859,0.461,0.483,0.593,0.32,-0.259,0.108
0.156,-0.015,0.406,0.421,-0.195,-0.218,0.413,0.561,0.173,0.857,0.461,0.483,0.591,0.323,-0.26,0.11
0.157,-0.009,0.391,0.399,-0.191,-0.204,0.395,0.551,0.167,0.853,0.458,0.481,0.594,0.322,-0.277,0.117
0.158,-0.025,0.385,0.409,-0.179,-0.217,0.397,0.544,0.161,0.85,0.457,0.48,0.597,0.323,-0.278,0.121
0.159,-0.019,0.385,0.404,-0.182,-0.212,0.394,0.553,0.172,0.859,0.465,0.487,0.603,0.324,-0.281,0.12
0.16,-0.015,0.378,0.393,-0.181,-0.203,0.385,0.553,0.177,0.862,0.466,0.487,0.604,0.319,-0.291,0.12
0.161,-0.022,0.401,0.423,-0.189,-0.224,0.411,0.549,0.172,0.862,0.469,0.49,0.605,0.322,-0.282,0.122
0.162,-0.025,0.407,0.433,-0.191,-0.23,0.42,0.548,0.173,0.866,0.478,0.499,0.61,0.328,-0.281,0.121
0.163,-0.029,0.374,0.404,-0.172,-0.216,0.389,0.55,0.171,0.863,0.475,0.493,0.61,0.324,-0.297,0.121
0.164,-0.034,0.34,0.373,-0.152,-0.203,0.356,0.552,0.167,0.859,0.47,0.486,0.608,0.323,-0.309,0.123
0.165,-0.031,0.358,0.389,-0.163,-0.21,0.373,0.545,0.156,0.843,0.454,0.471,0.595,0.32,-0.287,0.119
0.166,-0.025,0.382,0.407,-0.177,-0.217,0.395,0.543,0.15,0.839,0.449,0.468,0.592,0.322,-0.275,0.113
0.167,-0.037,0.384,0.42,-0.173,-0.229,0.402,0.551,0.161,0.854,0.463,0.481,0.602,0.328,-0.282,0.106
0.168,-0.036,0.379,0.415,-0.171,-0.227,0.397,0.552,0.164,0.855,0.461,0.478,0.601,0.324,-0.289,0.106
0.169,-0.028,0.374,0.402,-0.172,-0.215,0.388,0.555,0.163,0.852,0.456,0.47,0.596,0.319,-0.289,0.108
0.17,-0.031,0.372,0.403,-0.17,-0.217,0.388,0.559,0.168,0.859,0.463,0.475,0.598,0.317,-0.284,0.107
0.171,-0.032,0.363,0.395,-0.166,-0.213,0.379,0.564,0.175,0.865,0.469,0.483,0.604,0.317,-0.294,0.105
0.172,-0.021,0.371,0.393,-0.174,-0.207,0.382,0.564,0.173,0.862,0.463,0.48,0.6,0.318,-0.291,0.104
0.173,-0.015,0.392,0.406,-0.188,-0.211,0.399,0.553,0.161,0.853,0.454,0.475,0.594,0.318,-0.275,0.105
0.174,-0.009,0.418,0.426,-0.204,-0.218,0.422,0.543,0.151,0.844,0.444,0.463,0.586,0.318,-0.26,0.108
0.175,-0.005,0.423,0.428,-0.209,-0.216,0.425,0.548,0.154,0.845,0.443,0.457,0.583,0.312,-0.257,0.11
0.176,-0.007,0.412,0.419,-0.203,-0.213,0.416,0.559,0.166,0.856,0.455,0.467,0.593,0.314,-0.272,0.11
0.177,-0.016,0.387,0.403,-0.185,-0.209,0.395,0.572,0.183,0.873,0.471,0.48,0.606,0.317,-0.289,0.11
0.178,-0.019,0.354,0.373,-0.168,-0.197,0.364,0.581,0.194,0.88,0.48,0.487,0.614,0.315,-0.309,0.11
0.179,-0.009,0.395,0.403,-0.193,-0.206,0.399,0.571,0.182,0.872,0.471,0.482,0.605,0.317,-0.289,0.109
0.18,-0.009,0.42,0.429,-0.205,-0.219,0.424,0.562,0.164,0.861,0.459,0.473,0.596,0.313,-0.268,0.11
0.181,-0.015,0.39,0.406,-0.187,-0.21,0.398,0.561,0.165,0.859,0.459,0.472,0.598,0.31,-0.287,0.113
0.182,-0.022,0.385,0.407,-0.18,-0.215,0.396,0.554,0.162,0.855,0.459,0.468,0.593,0.31,-0.292,0.115
0.183,-0.025,0.381,0.406,-0.177,-0.215,0.393,0.548,0.153,0.846,0.452,0.458,0.587,0.307,-0.293,0.117
0.184,-0.019,0.376,0.395,-0.178,-0.207,0.386,0.551,0.158,0.848,0.456,0.464,0.591,0.311,-0.293,0.118
0.185,-0.021,0.379,0.399,-0.178,-0.21,0.389,0.558,0.166,0.855,0.461,0.47,0.596,0.31,-0.29,0.117
0.186,-0.037,0.367,0.405,-0.165,-0.222,0.386,0.562,0.171,0.86,0.463,0.47,0.601,0.309,-0.295,0.118
0.187,-0.046,0.358,0.404,-0.155,-0.226,0.381,0.56,0.168,0.859,0.462,0.466,0.603,0.312,-0.298,0.118
0.188,-0.034,0.368,0.402,-0.167,-0.217,0.385,0.558,0.166,0.857,0.458,0.462,0.598,0.315,-0.295,0.116
0.189,-0.017,0.394,0.411,-0.188,-0.214,0.403,0.558,0.166,0.852,0.453,0.459,0.595,0.327,-0.285,0.121
0.19,-0.018,0.411,0.428,-0.196,-0.223,0.419,0.558,0.163,0.85,0.448,0.454,0.59,0.328,-0.276,0.121
0.191,-0.026,0.392,0.417,-0.182,-0.222,0.405,0.558,0.159,0.853,0.45,0.455,0.59,0.322,-0.285,0.12
0.192,-0.025,0.366,0.392,-0.17,-0.208,0.379,0.56,0.162,0.854,0.45,0.459,0.596,0.319,-0.298,0.124
0.193,-0.019,0.369,0.389,-0.174,-0.204,0.379,0.562,0.163,0.856,0.45,0.462,0.599,0.312,-0.295,0.122
0.194,-0.004,0.394,0.397,-0.195,-0.2,0.396,0.565,0.164,0.857,0.45,0.464,0.601,0.31,-0.287,0.122
0.195,-0.004,0.409,0.413,-0.202,-0.209,0.411,0.558,0.154,0.85,0.446,0.461,0.599,0.311,-0.276,0.121
0.196,-0.021,0.394,0.415,-0.186,-0.218,0.405,0.55,0.147,0.844,0.441,0.454,0.592,0.309,-0.277,0.12
0.197,-0.022,0.381,0.403,-0.178,-0.213,0.392,0.551,0.152,0.847,0.443,0.454,0.59,0.311,-0.285,0.123
0.198,-0.03,0.363,0.394,-0.167,-0.212,0.379,0.557,0.158,0.854,0.448,0.457,0.595,0.311,-0.298,0.123
0.199,-0.035,0.34,0.374,-0.152,-0.204,0.356,0.562,0.165,0.859,0.451,0.459,0.598,0.307,-0.312,0.123
0.2,-0.028,0.338,0.365,-0.154,-0.197,0.351,0.571,0.169,0.862,0.454,0.461,0.595,0.303,-0.311,0.119
0.201,-0.033,0.357,0.391,-0.162,-0.212,0.374,0.57,0.164,0.858,0.449,0.454,0.591,0.3,-0.298,0.117
0.202,-0.043,0.36,0.404,-0.159,-0.224,0.382,0.563,0.158,0.852,0.446,0.452,0.588,0.296,-0.297,0.118
0.203,-0.042,0.337,0.379,-0.147,-0.21,0.357,0.566,0.161,0.858,0.455,0.458,0.593,0.293,-0.318,0.12
0.204,-0.038,0.337,0.374,-0.148,-0.206,0.355,0.56,0.16,0.854,0.449,0.453,0.59,0.293,-0.316,0.124
0.205,-0.025,0.378,0.403,-0.176,-0.214,0.39,0.554,0.149,0.843,0.437,0.442,0.579,0.292,-0.286,0.123
0.206,0.005,0.409,0.404,-0.206,-0.2,0.406,0.551,0.151,0.848,0.441,0.447,0.582,0.297,-0.275,0.123
0.207,0.015,0.411,0.396,-0.212,-0.191,0.404,0.548,0.158,0.854,0.445,0.455,0.587,0.3,-0.274,0.123
0.208,0.003,0.414,0.41,-0.208,-0.203,0.412,0.557,0.164,0.86,0.449,0.458,0.584,0.298,-0.27,0.118
0.209,-0.009,0.417,0.426,-0.204,-0.217,0.421,0.561,0.172,0.869,0.456,0.463,0.582,0.294,-0.256,0.113
0.21,-0.006,0.432,0.438,-0.213,-0.222,0.434,0.568,0.179,0.875,0.46,0.464,0.586,0.295,-0.238,0.11
0.211,-0.002,0.437,0.438,-0.217,-0.22,0.437,0.581,0.185,0.881,0.463,0.466,0.596,0.298,-0.235,0.108
0.212,-0.005,0.432,0.437,-0.213,-0.222,0.434,0.583,0.185,0.881,0.46,0.466,0.597,0.297,-0.238,0.108
0.213,0.002,0.446,0.444,-0.224,-0.221,0.445,0.573,0.178,0.872,0.446,0.456,0.584,0.295,-0.225,0.11
0.214,0.013,0.466,0.453,-0.239,-0.22,0.459,0.568,0.181,0.873,0.446,0.459,0.582,0.292,-0.207,0.11
0.215,0.028,0.481,0.452,-0.254,-0.212,0.467,0.569,0.181,0.874,0.45,0.464,0.587,0.291,-0.213,0.114
0.216,0.045,0.484,0.439,-0.265,-0.197,0.461,0.566,0.171,0.872,0.452,0.468,0.593,0.295,-0.224,0.119
0.217,0.044,0.477,0.433,-0.261,-0.195,0.455,0.572,0.178,0.877,0.461,0.472,0.6,0.302,-0.225,0.119
0.218,0.043,0.474,0.431,-0.258,-0.194,0.452,0.577,0.183,0.877,0.459,0.47,0.604,0.303,-0.232,0.116
0.219,0.049,0.481,0.432,-0.265,-0.192,0.457,0.575,0.176,0.874,0.454,0.468,0.604,0.302,-0.23,0.112
0.22,0.043,0.467,0.423,-0.255,-0.19,0.445,0.578,0.178,0.876,0.457,0.469,0.604,0.304,-0.234,0.111
0.221,0.035,0.456,0.419,-0.245,-0.192,0.438,0.579,0.183,0.881,0.463,0.472,0.605,0.307,-0.239,0.113
0.222,0.01,0.454,0.443,-0.232,-0.216,0.448,0.567,0.17,0.869,0.451,0.459,0.586,0.303,-0.224,0.107
0.223,-0.015,0.441,0.455,-0.212,-0.235,0.448,0.562,0.165,0.861,0.443,0.445,0.571,0.301,-0.21,0.102
0.224,-0.018,0.436,0.455,-0.208,-0.237,0.445,0.563,0.166,0.861,0.443,0.44,0.565,0.302,-0.2,0.101
0.225,-0.03,0.432,0.463,-0.201,-0.246,0.447,0.573,0.175,0.872,0.454,0.448,0.57,0.306,-0.205,0.098
0.226,-0.036,0.429,0.466,-0.196,-0.251,0.447,0.587,0.2,0.89,0.47,0.466,0.583,0.311,-0.219,0.095
0.227,-0.018,0.423,0.442,-0.202,-0.23,0.432,0.585,0.193,0.882,0.461,0.459,0.578,0.314,-0.229,0.099
0.228,0.009,0.45,0.44,-0.23,-0.215,0.445,0.594,0.191,0.884,0.461,0.457,0.579,0.316,-0.227,0.099
0.229,0.031,0.491,0.46,-0.261,-0.214,0.475,0.603,0.203,0.889,0.464,0.462,0.582,0.314,-0.206,0.097
0.23,0.038,0.498,0.46,-0.269,-0.211,0.479,0.612,0.208,0.894,0.469,0.468,0.583,0.31,-0.204,0.097
0.231,0.028,0.475,0.447,-0.251,-0.209,0.461,0.613,0.205,0.892,0.467,0.465,0.581,0.304,-0.224,0.098
0.232,0.005,0.457,0.451,-0.231,-0.223,0.454,0.608,0.204,0.888,0.459,0.461,0.579,0.304,-0.221,0.102
0.233,0.005,0.479,0.474,-0.241,-0.234,0.476,0.614,0.209,0.898,0.47,0.474,0.586,0.312,-0.199,0.098
0.234,0.024,0.479,0.455,-0.252,-0.215,0.468,0.598,0.198,0.888,0.461,0.47,0.583,0.318,-0.206,0.104
0.235,0.025,0.469,0.444,-0.247,-0.209,0.457,0.573,0.179,0.874,0.448,0.462,0.578,0.316,-0.217,0.114
0.236,0.02,0.476,0.456,-0.247,-0.218,0.466,0.565,0.179,0.874,0.452,0.468,0.578,0.313,-0.21,0.112
0.237,0.011,0.456,0.445,-0.234,-0.216,0.45,0.56,0.181,0.871,0.448,0.463,0.576,0.306,-0.226,0.117
0.238,0.008,0.459,0.45,-0.233,-0.221,0.454,0.544,0.173,0.868,0.446,0.46,0.576,0.3,-0.228,0.119
0.239,0.015,0.481,0.465,-0.248,-0.225,0.472,0.546,0.182,0.875,0.455,0.469,0.582,0.303,-0.203,0.12
0.24,0.024,0.495,0.471,-0.259,-0.224,0.483,0.556,0.186,0.881,0.463,0.472,0.586,0.305,-0.188,0.12
0.241,0.032,0.497,0.466,-0.265,-0.217,0.481,0.544,0.18,0.875,0.458,0.468,0.581,0.306,-0.176,0.119
0.242,0.031,0.492,0.461,-0.262,-0.214,0.476,0.546,0.18,0.877,0.464,0.472,0.586,0.304,-0.175,0.12
0.243,0.03,0.488,0.458,-0.259,-0.214,0.473,0.552,0.191,0.887,0.479,0.487,0.6,0.306,-0.183,0.125
0.244,0.029,0.493,0.464,-0.261,-0.217,0.478,0.554,0.203,0.895,0.486,0.495,0.603,0.309,-0.175,0.127
0.245,0.038,0.521,0.483,-0.28,-0.223,0.502,0.559,0.204,0.901,0.492,0.502,0.612,0.316,-0.161,0.127
0.246,0.045,0.522,0.476,-0.284,-0.215,0.499,0.561,0.203,0.896,0.485,0.501,0.615,0.321,-0.158,0.132
0.247,0.049,0.51,0.461,-0.279,-0.206,0.485,0.557,0.194,0.894,0.483,0.502,0.616,0.327,-0.168,0.14
0.248,0.051,0.502,0.451,-0.277,-0.2,0.476,0.56,0.197,0.899,0.49,0.509,0.625,0.332,-0.173,0.147
0.249,0.05,0.49,0.44,-0.27,-0.195,0.465,0.566,0.2,0.899,0.487,0.507,0.625,0.336,-0.178,0.149
0.25,0.045,0.488,0.443,-0.267,-0.199,0.466,0.546,0.184,0.889,0.48,0.501,0.622,0.34,-0.183,0.152
0.251,0.029,0.496,0.467,-0.262,-0.22,0.481,0.52,0.169,0.871,0.461,0.486,0.607,0.34,-0.161,0.157
0.252,0.028,0.502,0.473,-0.265,-0.223,0.487,0.512,0.161,0.868,0.453,0.48,0.601,0.341,-0.149,0.156
0.253,0.026,0.493,0.467,-0.26,-0.22,0.48,0.532,0.172,0.875,0.459,0.487,0.607,0.341,-0.153,0.15
0.254,0.027,0.488,0.461,-0.258,-0.217,0.474,0.527,0.162,0.864,0.448,0.483,0.604,0.343,-0.161,0.151
0.255,0.032,0.487,0.456,-0.259,-0.212,0.471,0.506,0.15,0.856,0.444,0.479,0.601,0.341,-0.171,0.154
0.256,0.038,0.497,0.458,-0.267,-0.21,0.477,0.514,0.165,0.865,0.454,0.487,0.606,0.344,-0.171,0.152
0.257,0.056,0.511,0.456,-0.283,-0.2,0.483,0.517,0.164,0.869,0.462,0.498,0.616,0.35,-0.165,0.159
0.258,0.049,0.512,0.463,-0.281,-0.206,0.487,0.513,0.165,0.864,0.461,0.497,0.616,0.347,-0.164,0.163
0.259,0.049,0.508,0.46,-0.279,-0.205,0.484,0.527,0.172,0.864,0.46,0.497,0.619,0.347,-0.171,0.164
0.26,0.051,0.491,0.44,-0.271,-0.195,0.465,0.537,0.175,0.877,0.472,0.509,0.63,0.353,-0.182,0.162
0.261,0.052,0.487,0.434,-0.269,-0.192,0.461,0.523,0.159,0.861,0.46,0.497,0.623,0.351,-0.192,0.165
0.262,0.051,0.476,0.425,-0.264,-0.187,0.451,0.509,0.146,0.843,0.445,0.482,0.612,0.345,-0.202,0.171
0.263,0.043,0.467,0.423,-0.254,-0.191,0.445,0.493,0.134,0.832,0.438,0.476,0.603,0.341,-0.201,0.176
0.264,0.039,0.459,0.419,-0.248,-0.19,0.439,0.487,0.122,0.819,0.425,0.467,0.593,0.341,-0.199,0.183
0.265,0.04,0.441,0.401,-0.239,-0.18,0.42,0.484,0.125,0.812,0.417,0.462,0.585,0.342,-0.217,0.183
0.266,0.051,0.471,0.419,-0.261,-0.184,0.445,0.477,0.109,0.796,0.404,0.451,0.572,0.34,-0.201,0.181
0.267,0.059,0.478,0.418,-0.268,-0.18,0.448,0.481,0.113,0.799,0.404,0.454,0.574,0.339,-0.201,0.18
0.268,0.054,0.454,0.399,-0.254,-0.172,0.425,0.489,0.123,0.804,0.408,0.458,0.582,0.342,-0.228,0.183
0.269,0.048,0.462,0.414,-0.254,-0.183,0.438,0.485,0.116,0.799,0.406,0.458,0.583,0.343,-0.223,0.189
0.27,0.05,0.465,0.413,-0.257,-0.181,0.439,0.485,0.112,0.794,0.402,0.458,0.584,0.339,-0.23,0.189
0.271,0.053,0.455,0.402,-0.254,-0.174,0.428,0.502,0.119,0.798,0.405,0.464,0.593,0.342,-0.239,0.188
0.272,0.043,0.439,0.395,-0.24,-0.175,0.416,0.5,0.11,0.794,0.398,0.461,0.592,0.343,-0.242,0.193
0.273,0.044,0.42,0.376,-0.233,-0.166,0.398,0.501,0.104,0.789,0.389,0.454,0.586,0.336,-0.247,0.192
0.274,0.059,0.42,0.361,-0.239,-0.151,0.391,0.502,0.116,0.796,0.396,0.46,0.593,0.34,-0.25,0.191
0.275,0.06,0.407,0.345,-0.234,-0.142,0.376,0.483,0.109,0.798,0.4,0.463,0.596,0.34,-0.261,0.19
0.276,0.059,0.413,0.353,-0.236,-0.147,0.383,0.487,0.105,0.795,0.398,0.459,0.591,0.334,-0.26,0.187
0.277,0.058,0.454,0.396,-0.256,-0.169,0.424,0.486,0.102,0.788,0.393,0.452,0.584,0.34,-0.23,0.189
0.278,0.046,0.465,0.417,-0.255,-0.185,0.441,0.476,0.099,0.785,0.389,0.447,0.577,0.337,-0.21,0.191
0.279,0.049,0.473,0.424,-0.261,-0.188,0.449,0.482,0.102,0.787,0.389,0.446,0.573,0.332,-0.208,0.193
0.28,0.04,0.473,0.432,-0.256,-0.197,0.453,0.489,0.112,0.796,0.396,0.45,0.573,0.329,-0.198,0.189
0.281,0.042,0.466,0.424,-0.254,-0.191,0.445,0.489,0.116,0.801,0.402,0.452,0.573,0.327,-0.202,0.183
0.282,0.042,0.45,0.407,-0.245,-0.182,0.428,0.498,0.125,0.814,0.415,0.462,0.577,0.325,-0.222,0.172
0.283,0.018,0.428,0.409,-0.223,-0.195,0.418,0.509,0.137,0.822,0.423,0.459,0.571,0.314,-0.235,0.159
0.284,0.009,0.421,0.412,-0.214,-0.202,0.416,0.519,0.136,0.821,0.421,0.453,0.558,0.301,-0.248,0.149
0.285,0.002,0.393,0.391,-0.197,-0.195,0.392,0.531,0.14,0.827,0.425,0.454,0.557,0.291,-0.27,0.137
0.286,-0.002,0.402,0.403,-0.2,-0.202,0.402,0.536,0.143,0.827,0.424,0.451,0.553,0.286,-0.268,0.128
0.287,-0.001,0.425,0.425,-0.212,-0.213,0.425,0.542,0.152,0.836,0.432,0.461,0.557,0.287,-0.247,0.121
0.288,-0.01,0.411,0.421,-0.2,-0.215,0.415,0.55,0.159,0.841,0.437,0.463,0.568,0.285,-0.247,0.119
0.289,-0.03,0.41,0.44,-0.19,-0.235,0.424,0.55,0.154,0.837,0.434,0.464,0.57,0.284,-0.252,0.12
0.29,-0.026,0.423,0.449,-0.198,-0.238,0.435,0.537,0.141,0.825,0.422,0.456,0.566,0.297,-0.255,0.131
0.291,-0.01,0.432,0.442,-0.21,-0.226,0.436,0.532,0.132,0.815,0.412,0.445,0.555,0.3,-0.254,0.137
0.292,-0.015,0.415,0.43,-0.2,-0.223,0.422,0.534,0.14,0.819,0.412,0.449,0.553,0.293,-0.263,0.129
0.293,-0.024,0.402,0.425,-0.189,-0.225,0.413,0.525,0.127,0.807,0.398,0.435,0.551,0.293,-0.278,0.131
0.294,-0.032,0.402,0.433,-0.184,-0.233,0.417,0.526,0.118,0.797,0.387,0.424,0.544,0.279,-0.276,0.129
0.295,-0.028,0.393,0.42,-0.181,-0.225,0.406,0.534,0.125,0.798,0.389,0.423,0.548,0.271,-0.283,0.128
0.296,-0.026,0.397,0.423,-0.184,-0.226,0.41,0.535,0.123,0.8,0.392,0.424,0.55,0.273,-0.288,0.129
0.297,-0.021,0.393,0.413,-0.185,-0.218,0.403,0.546,0.128,0.805,0.397,0.432,0.559,0.274,-0.289,0.13
0.298,-0.017,0.379,0.396,-0.18,-0.206,0.387,0.549,0.129,0.805,0.399,0.431,0.566,0.278,-0.299,0.133
0.299,-0.04,0.355,0.395,-0.157,-0.217,0.374,0.543,0.131,0.808,0.403,0.432,0.568,0.278,-0.312,0.131
0.3,-0.054,0.335,0.389,-0.14,-0.222,0.361,0.539,0.132,0.807,0.402,0.431,0.57,0.28,-0.315,0.132
0.301,-0.069,0.346,0.414,-0.139,-0.241,0.38,0.542,0.129,0.801,0.398,0.423,0.557,0.272,-0.304,0.128
0.302,-0.065,0.383,0.448,-0.159,-0.257,0.415,0.543,0.127,0.796,0.392,0.415,0.55,0.271,-0.292,0.129
0.303,-0.059,0.401,0.46,-0.171,-0.26,0.43,0.528,0.115,0.786,0.385,0.408,0.542,0.276,-0.288,0.137
0.304,-0.053,0.407,0.461,-0.176,-0.257,0.433,0.506,0.098,0.772,0.372,0.395,0.531,0.277,-0.286,0.141
0.305,-0.051,0.428,0.478,-0.189,-0.265,0.453,0.493,0.084,0.757,0.356,0.377,0.518,0.276,-0.271,0.145
0.306,-0.083,0.406,0.489,-0.162,-0.286,0.448,0.5,0.09,0.764,0.362,0.378,0.515,0.264,-0.286,0.144
0.307,-0.071,0.393,0.465,-0.161,-0.269,0.429,0.512,0.103,0.776,0.372,0.389,0.526,0.258,-0.297,0.139
0.308,-0.046,0.396,0.443,-0.174,-0.244,0.419,0.511,0.104,0.78,0.374,0.392,0.529,0.26,-0.295,0.139
0.309,-0.035,0.381,0.416,-0.172,-0.226,0.399,0.5,0.098,0.776,0.37,0.388,0.524,0.259,-0.303,0.141
0.31,-0.034,0.37,0.405,-0.168,-0.22,0.387,0.517,0.107,0.783,0.375,0.389,0.528,0.258,-0.3,0.138
0.311,-0.05,0.364,0.414,-0.157,-0.233,0.39,0.527,0.118,0.794,0.384,0.4,0.535,0.259,-0.304,0.136
0.312,-0.042,0.379,0.42,-0.168,-0.232,0.399,0.518,0.118,0.797,0.385,0.405,0.539,0.256,-0.312,0.138
0.313,-0.021,0.398,0.419,-0.188,-0.221,0.408,0.53,0.131,0.809,0.395,0.413,0.546,0.254,-0.306,0.134
0.314,-0.022,0.402,0.423,-0.189,-0.223,0.412,0.539,0.138,0.811,0.397,0.417,0.547,0.253,-0.301,0.129
0.315,-0.037,0.382,0.419,-0.172,-0.229,0.401,0.531,0.137,0.812,0.398,0.416,0.55,0.258,-0.314,0.135
0.316,-0.029,0.395,0.423,-0.182,-0.226,0.408,0.538,0.137,0.812,0.4,0.42,0.557,0.261,-0.299,0.135
0.317,-0.013,0.42,0.433,-0.203,-0.224,0.426,0.535,0.119,0.796,0.388,0.413,0.551,0.265,-0.285,0.139
0.318,-0.042,0.4,0.441,-0.178,-0.241,0.42,0.518,0.102,0.78,0.374,0.397,0.539,0.267,-0.293,0.143
0.319,-0.066,0.378,0.444,-0.155,-0.255,0.41,0.517,0.1,0.774,0.368,0.393,0.536,0.263,-0.296,0.139
0.32,-0.084,0.358,0.442,-0.137,-0.263,0.4,0.517,0.097,0.769,0.362,0.385,0.532,0.263,-0.301,0.14
0.321,-0.103,0.353,0.456,-0.124,-0.28,0.405,0.511,0.09,0.76,0.354,0.375,0.522,0.258,-0.289,0.141
0.322,-0.11,0.345,0.456,-0.117,-0.283,0.4,0.506,0.096,0.766,0.361,0.38,0.529,0.257,-0.296,0.138
0.323,-0.104,0.345,0.45,-0.12,-0.278,0.398,0.525,0.112,0.781,0.376,0.392,0.544,0.257,-0.314,0.134
0.324,-0.083,0.355,0.438,-0.136,-0.261,0.396,0.529,0.114,0.782,0.377,0.394,0.545,0.257,-0.314,0.135
0.325,-0.074,0.351,0.425,-0.138,-0.25,0.388,0.515,0.109,0.776,0.368,0.383,0.542,0.263,-0.316,0.14
0.326,-0.07,0.36,0.43,-0.144,-0.251,0.395,0.514,0.102,0.771,0.363,0.378,0.535,0.259,-0.309,0.142
0.327,-0.077,0.361,0.439,-0.141,-0.258,0.4,0.515,0.103,0.772,0.364,0.377,0.53,0.259,-0.307,0.141
0.328,-0.083,0.368,0.451,-0.142,-0.267,0.409,0.518,0.103,0.773,0.365,0.377,0.528,0.26,-0.303,0.138
0.329,-0.083,0.373,0.456,-0.145,-0.27,0.414,0.511,0.09,0.767,0.36,0.373,0.523,0.258,-0.294,0.136
0.33,-0.079,0.383,0.462,-0.151,-0.27,0.422,0.513,0.096,0.763,0.354,0.366,0.522,0.264,-0.291,0.134
0.331,-0.079,0.388,0.467,-0.154,-0.273,0.427,0.516,0.1,0.768,0.354,0.365,0.52,0.262,-0.293,0.131
0.332,-0.07,0.395,0.465,-0.163,-0.267,0.429,0.513,0.097,0.771,0.356,0.369,0.521,0.262,-0.277,0.131
0.333,-0.049,0.43,0.478,-0.191,-0.264,0.454,0.517,0.106,0.78,0.363,0.379,0.529,0.271,-0.262,0.133
0.334,-0.044,0.417,0.461,-0.186,-0.253,0.439,0.519,0.104,0.782,0.367,0.383,0.533,0.27,-0.276,0.138
0.335,-0.037,0.388,0.425,-0.174,-0.232,0.406,0.527,0.115,0.792,0.379,0.396,0.546,0.268,-0.295,0.14
0.336,-0.056,0.383,0.438,-0.164,-0.247,0.41,0.529,0.121,0.799,0.385,0.399,0.545,0.263,-0.302,0.137
0.337,-0.059,0.378,0.438,-0.159,-0.249,0.407,0.526,0.111,0.786,0.374,0.388,0.534,0.258,-0.297,0.139
0.338,-0.052,0.378,0.43,-0.163,-0.241,0.404,0.531,0.119,0.792,0.381,0.393,0.538,0.259,-0.303,0.138
0.339,-0.048,0.379,0.426,-0.166,-0.237,0.403,0.539,0.123,0.8,0.387,0.397,0.538,0.261,-0.308,0.133
0.34,-0.053,0.377,0.429,-0.162,-0.241,0.403,0.528,0.113,0.786,0.374,0.386,0.531,0.262,-0.312,0.134
0.341,-0.075,0.364,0.44,-0.144,-0.258,0.402,0.526,0.116,0.786,0.375,0.384,0.527,0.262,-0.31,0.129
0.342,-0.072,0.367,0.439,-0.146,-0.256,0.403,0.53,0.116,0.784,0.374,0.379,0.525,0.257,-0.311,0.123
0.343,-0.061,0.362,0.423,-0.15,-0.242,0.393,0.529,0.117,0.779,0.369,0.374,0.527,0.258,-0.329,0.13
0.344,-0.054,0.345,0.4,-0.145,-0.227,0.372,0.526,0.119,0.78,0.375,0.381,0.528,0.255,-0.344,0.128
0.345,-0.06,0.361,0.422,-0.149,-0.241,0.391,0.513,0.098,0.762,0.357,0.363,0.518,0.245,-0.331,0.13
0.346,-0.067,0.365,0.432,-0.149,-0.249,0.399,0.504,0.081,0.75,0.344,0.352,0.515,0.249,-0.307,0.134
0.347,-0.08,0.352,0.432,-0.137,-0.256,0.392,0.506,0.092,0.759,0.351,0.358,0.522,0.252,-0.311,0.129
0.348,-0.08,0.359,0.439,-0.14,-0.26,0.399,0.525,0.108,0.772,0.361,0.366,0.529,0.251,-0.308,0.122
0.349,-0.07,0.369,0.44,-0.148,-0.256,0.404,0.523,0.106,0.776,0.361,0.366,0.527,0.248,-0.299,0.12
0.35,-0.083,0.385,0.467,-0.15,-0.275,0.425,0.527,0.113,0.781,0.361,0.362,0.519,0.243,-0.29,0.117
0.351,-0.08,0.39,0.47,-0.154,-0.276,0.43,0.531,0.114,0.787,0.367,0.366,0.521,0.247,-0.293,0.121
0.352,-0.088,0.386,0.473,-0.148,-0.281,0.429,0.523,0.113,0.788,0.367,0.367,0.524,0.251,-0.294,0.126
0.353,-0.098,0.399,0.496,-0.15,-0.297,0.448,0.53,0.119,0.791,0.361,0.365,0.52,0.246,-0.28,0.123
0.354,-0.086,0.401,0.487,-0.157,-0.287,0.444,0.541,0.125,0.798,0.366,0.371,0.522,0.241,-0.287,0.119
0.355,-0.077,0.391,0.469,-0.157,-0.273,0.429,0.557,0.13,0.802,0.368,0.369,0.525,0.236,-0.295,0.115
0.356,-0.095,0.4,0.494,-0.151,-0.295,0.447,0.572,0.128,0.798,0.361,0.357,0.514,0.223,-0.277,0.103
0.357,-0.125,0.408,0.533,-0.141,-0.33,0.47,0.579,0.129,0.794,0.351,0.34,0.496,0.208,-0.261,0.092
0.358,-0.139,0.432,0.572,-0.146,-0.355,0.501,0.583,0.128,0.778,0.322,0.305,0.471,0.189,-0.244,0.079
0.359,-0.181,0.441,0.623,-0.129,-0.402,0.531,0.619,0.159,0.792,0.322,0.293,0.456,0.165,-0.239,0.05
0.36,-0.218,0.414,0.633,-0.098,-0.426,0.523,0.682,0.214,0.826,0.337,0.292,0.448,0.145,-0.258,0.019
0.361,-0.213,0.387,0.601,-0.086,-0.407,0.493,0.721,0.267,0.851,0.344,0.281,0.432,0.134,-0.278,-0.008
0.362,-0.209,0.375,0.585,-0.082,-0.398,0.479,0.745,0.311,0.875,0.354,0.278,0.421,0.134,-0.299,-0.029
0.363,-0.203,0.379,0.582,-0.087,-0.393,0.48,0.765,0.376,0.922,0.389,0.293,0.417,0.142,-0.314,-0.054
0.364,-0.18,0.359,0.539,-0.088,-0.36,0.449,0.787,0.473,0.997,0.45,0.329,0.417,0.16,-0.328,-0.082
0.365,-0.137,0.353,0.49,-0.108,-0.314,0.421,0.8,0.542,1.058,0.504,0.37,0.435,0.191,-0.335,-0.097
0.366,-0.095,0.354,0.449,-0.129,-0.273,0.402,0.814,0.634,1.141,0.578,0.426,0.458,0.232,-0.348,-0.124
0.367,-0.055,0.349,0.405,-0.146,-0.23,0.377,0.842,0.739,1.226,0.646,0.47,0.475,0.266,-0.361,-0.157
0.368,-0.032,0.346,0.38,-0.157,-0.206,0.363,0.87,0.821,1.291,0.696,0.5,0.488,0.287,-0.366,-0.186
0.369,-0.021,0.34,0.359,-0.159,-0.19,0.349,0.893,0.887,1.361,0.754,0.541,0.507,0.315,-0.374,-0.22
0.37,0.015,0.353,0.338,-0.184,-0.161,0.345,0.914,0.934,1.433,0.822,0.593,0.536,0.346,-0.368,-0.248
0.371,0.043,0.36,0.318,-0.202,-0.138,0.339,0.922,0.976,1.504,0.896,0.656,0.566,0.384,-0.362,-0.276
0.372,0.086,0.39,0.303,-0.238,-0.108,0.346,0.914,0.985,1.571,0.976,0.723,0.6,0.426,-0.338,-0.3
0.373,0.143,0.449,0.305,-0.296,-0.081,0.377,0.926,1.017,1.657,1.066,0.791,0.626,0.471,-0.291,-0.342
0.374,0.176,0.49,0.314,-0.333,-0.069,0.402,0.915,1.036,1.738,1.157,0.86,0.646,0.515,-0.254,-0.379
0.375,0.213,0.509,0.295,-0.36,-0.042,0.402,0.864,0.999,1.782,1.238,0.934,0.677,0.56,-0.243,-0.382
0.376,0.271,0.542,0.271,-0.406,0,0.406,0.785,0.926,1.812,1.32,1.022,0.722,0.62,-0.222,-0.369
0.377,0.33,0.572,0.242,-0.451,0.043,0.407,0.685,0.848,1.83,1.395,1.109,0.76,0.679,-0.196,-0.344
0.378,0.401,0.617,0.215,-0.509,0.093,0.416,0.596,0.79,1.857,1.474,1.194,0.799,0.742,-0.166,-0.323
0.379,0.496,0.69,0.193,-0.593,0.152,0.442,0.506,0.754,1.913,1.579,1.302,0.851,0.818,-0.114,-0.305
0.38,0.579,0.745,0.166,-0.661,0.206,0.455,0.42,0.71,1.952,1.669,1.402,0.9,0.88,-0.07,-0.283
0.381,0.668,0.806,0.138,-0.737,0.265,0.471,0.312,0.623,1.95,1.729,1.488,0.959,0.949,-0.021,-0.241
0.382,0.748,0.855,0.106,-0.8,0.321,0.48,0.183,0.52,1.92,1.774,1.573,1.016,1.02,0.018,-0.177
0.383,0.8,0.896,0.096,-0.848,0.352,0.495,0.075,0.431,1.897,1.819,1.652,1.067,1.081,0.046,-0.117
0.384,0.86,0.902,0.042,-0.88,0.409,0.472,-0.025,0.367,1.886,1.861,1.724,1.117,1.137,0.058,-0.064
0.385,0.907,0.904,-0.003,-0.904,0.455,0.451,-0.117,0.278,1.819,1.84,1.748,1.145,1.168,0.07,-0.002
0.386,0.943,0.94,-0.004,-0.941,0.473,0.468,-0.233,0.151,1.706,1.778,1.752,1.167,1.195,0.102,0.08
0.387,0.957,0.968,0.01,-0.962,0.473,0.488,-0.329,-0.013,1.568,1.688,1.732,1.195,1.208,0.127,0.171
0.388,0.959,0.984,0.025,-0.971,0.467,0.504,-0.389,-0.171,1.424,1.577,1.687,1.216,1.196,0.149,0.263
0.389,0.965,0.944,-0.021,-0.954,0.493,0.461,-0.471,-0.31,1.275,1.452,1.625,1.205,1.176,0.111,0.361
0.39,0.943,0.844,-0.1,-0.892,0.521,0.372,-0.523,-0.405,1.159,1.343,1.553,1.171,1.139,0.029,0.439
0.391,0.899,0.719,-0.18,-0.808,0.539,0.269,-0.52,-0.456,1.068,1.234,1.466,1.126,1.077,-0.059,0.498
0.392,0.843,0.618,-0.225,-0.73,0.533,0.197,-0.522,-0.551,0.911,1.048,1.314,1.046,0.984,-0.141,0.571
0.393,0.808,0.573,-0.236,-0.69,0.522,0.168,-0.603,-0.686,0.736,0.868,1.183,0.989,0.919,-0.171,0.662
0.394,0.778,0.586,-0.193,-0.681,0.485,0.196,-0.695,-0.847,0.55,0.692,1.071,0.972,0.874,-0.161,0.759
0.395,0.716,0.573,-0.143,-0.643,0.429,0.214,-0.744,-1.008,0.346,0.483,0.909,0.927,0.796,-0.185,0.844
0.396,0.65,0.503,-0.147,-0.576,0.399,0.178,-0.772,-1.099,0.21,0.331,0.779,0.886,0.732,-0.24,0.901
0.397,0.594,0.461,-0.133,-0.527,0.363,0.164,-0.756,-1.161,0.086,0.182,0.648,0.839,0.658,-0.268,0.945
0.398,0.509,0.43,-0.079,-0.469,0.294,0.175,-0.738,-1.276,-0.089,-0.009,0.486,0.782,0.559,-0.29,1.003
0.399,0.362,0.394,0.032,-0.378,0.165,0.212,-0.7,-1.368,-0.244,-0.189,0.334,0.731,0.456,-0.295,1.048
0.4,0.245,0.336,0.09,-0.29,0.078,0.213,-0.635,-1.401,-0.363,-0.348,0.192,0.66,0.359,-0.332,1.065
0.401,0.182,0.3,0.118,-0.241,0.032,0.209,-0.59,-1.397,-0.422,-0.442,0.1,0.609,0.297,-0.358,1.066
0.402,0.145,0.284,0.139,-0.214,0.003,0.211,-0.548,-1.376,-0.461,-0.508,0.029,0.568,0.248,-0.358,1.067
0.403,0.128,0.247,0.119,-0.188,0.004,0.183,-0.471,-1.303,-0.441,-0.52,0.001,0.553,0.222,-0.383,1.046
0.404,0.103,0.238,0.135,-0.17,-0.016,0.186,-0.394,-1.187,-0.349,-0.46,0.024,0.55,0.223,-0.384,1
0.405,0.087,0.23,0.142,-0.158,-0.028,0.185,-0.329,-1.071,-0.259,-0.403,0.044,0.534,0.225,-0.38,0.948
0.406,0.079,0.234,0.154,-0.156,-0.037,0.194,-0.254,-0.952,-0.161,-0.338,0.07,0.53,0.226,-0.366,0.888
0.407,0.075,0.268,0.192,-0.171,-0.059,0.23,-0.187,-0.843,-0.066,-0.268,0.1,0.534,0.234,-0.335,0.831
0.408,0.07,0.299,0.229,-0.185,-0.079,0.264,-0.117,-0.736,0.028,-0.201,0.134,0.542,0.234,-0.301,0.773
0.409,0.067,0.336,0.268,-0.201,-0.101,0.301,-0.054,-0.65,0.102,-0.15,0.157,0.545,0.234,-0.262,0.721
0.41,0.068,0.373,0.305,-0.22,-0.119,0.34,-0.005,-0.581,0.164,-0.106,0.173,0.546,0.236,-0.226,0.676
0.411,0.065,0.418,0.353,-0.241,-0.144,0.386,0.033,-0.536,0.214,-0.07,0.19,0.55,0.244,-0.195,0.641
0.412,0.045,0.454,0.408,-0.249,-0.181,0.43,0.07,-0.482,0.27,-0.028,0.211,0.554,0.259,-0.17,0.604
0.413,0.035,0.486,0.451,-0.261,-0.207,0.468,0.123,-0.412,0.329,0.018,0.235,0.562,0.255,-0.139,0.564
0.414,0.038,0.518,0.479,-0.278,-0.221,0.498,0.178,-0.353,0.383,0.058,0.256,0.571,0.239,-0.131,0.526
0.415,0.037,0.508,0.47,-0.272,-0.216,0.489,0.203,-0.303,0.427,0.09,0.27,0.567,0.233,-0.157,0.492
0.416,0.04,0.488,0.448,-0.264,-0.204,0.468,0.22,-0.277,0.451,0.111,0.281,0.561,0.228,-0.172,0.462
0.417,0.046,0.499,0.453,-0.273,-0.203,0.476,0.245,-0.245,0.478,0.135,0.295,0.563,0.222,-0.173,0.438
0.418,0.047,0.503,0.456,-0.275,-0.204,0.479,0.257,-0.219,0.5,0.152,0.304,0.555,0.224,-0.167,0.413
0.419,0.018,0.48,0.462,-0.249,-0.222,0.471,0.27,-0.196,0.52,0.164,0.306,0.546,0.227,-0.163,0.386
0.42,-0.022,0.477,0.5,-0.227,-0.262,0.488,0.296,-0.165,0.545,0.185,0.316,0.543,0.221,-0.162,0.362
0.421,-0.045,0.464,0.509,-0.209,-0.278,0.486,0.32,-0.139,0.568,0.203,0.325,0.541,0.221,-0.177,0.337
0.422,-0.062,0.419,0.481,-0.178,-0.272,0.45,0.342,-0.114,0.589,0.218,0.33,0.539,0.215,-0.217,0.315
0.423,-0.075,0.408,0.483,-0.167,-0.28,0.446,0.369,-0.085,0.61,0.238,0.336,0.536,0.206,-0.233,0.288
0.424,-0.057,0.439,0.496,-0.191,-0.277,0.468,0.367,-0.085,0.608,0.234,0.328,0.525,0.207,-0.219,0.274
0.425,-0.05,0.446,0.495,-0.198,-0.273,0.47,0.384,-0.068,0.624,0.246,0.336,0.528,0.206,-0.227,0.265
0.426,-0.058,0.445,0.503,-0.193,-0.281,0.473,0.403,-0.048,0.639,0.256,0.341,0.528,0.206,-0.228,0.252
0.427,-0.065,0.446,0.511,-0.19,-0.288,0.478,0.405,-0.043,0.648,0.262,0.343,0.522,0.208,-0.226,0.235
0.428,-0.074,0.429,0.503,-0.177,-0.289,0.466,0.436,-0.004,0.676,0.281,0.354,0.523,0.208,-0.243,0.21
0.429,-0.077,0.42,0.497,-0.172,-0.287,0.459,0.435,0.001,0.675,0.275,0.346,0.511,0.203,-0.252,0.201
0.43,-0.081,0.419,0.5,-0.169,-0.29,0.46,0.446,0.015,0.686,0.281,0.348,0.505,0.201,-0.254,0.193
0.431,-0.077,0.413,0.491,-0.168,-0.284,0.452,0.452,0.034,0.701,0.29,0.356,0.509,0.207,-0.26,0.186
0.432,-0.091,0.382,0.472,-0.144,-0.282,0.427,0.447,0.033,0.701,0.287,0.352,0.508,0.212,-0.278,0.186
0.433,-0.101,0.385,0.485,-0.141,-0.293,0.434,0.457,0.038,0.7,0.281,0.345,0.5,0.214,-0.27,0.178
0.434,-0.099,0.428,0.527,-0.165,-0.314,0.478,0.446,0.036,0.695,0.276,0.339,0.492,0.217,-0.238,0.172
0.435,-0.1,0.436,0.535,-0.168,-0.318,0.485,0.452,0.04,0.702,0.28,0.338,0.491,0.218,-0.236,0.17
0.436,-0.08,0.444,0.524,-0.181,-0.302,0.484,0.461,0.049,0.711,0.288,0.344,0.494,0.225,-0.238,0.168
0.437,-0.081,0.449,0.529,-0.183,-0.305,0.489,0.469,0.059,0.719,0.295,0.349,0.496,0.224,-0.244,0.166
0.438,-0.093,0.429,0.522,-0.168,-0.308,0.475,0.48,0.06,0.725,0.301,0.353,0.498,0.219,-0.255,0.163
0.439,-0.084,0.423,0.507,-0.17,-0.295,0.465,0.485,0.065,0.729,0.307,0.354,0.499,0.222,-0.254,0.161
0.44,-0.08,0.416,0.495,-0.168,-0.287,0.455,0.495,0.072,0.737,0.315,0.358,0.503,0.222,-0.26,0.155
0.441,-0.088,0.405,0.492,-0.158,-0.29,0.448,0.501,0.075,0.742,0.32,0.365,0.503,0.22,-0.268,0.15
0.442,-0.1,0.41,0.51,-0.155,-0.305,0.46,0.496,0.072,0.738,0.317,0.356,0.493,0.216,-0.259,0.147
0.443,-0.114,0.401,0.514,-0.143,-0.315,0.458,0.492,0.072,0.738,0.319,0.356,0.492,0.219,-0.266,0.147
0.444,-0.126,0.368,0.493,-0.12,-0.309,0.43,0.495,0.082,0.748,0.33,0.365,0.499,0.22,-0.294,0.145
0.445,-0.116,0.378,0.493,-0.131,-0.305,0.435,0.496,0.086,0.751,0.333,0.366,0.502,0.217,-0.29,0.143
0.446,-0.103,0.403,0.506,-0.149,-0.304,0.454,0.508,0.101,0.765,0.344,0.378,0.512,0.225,-0.276,0.14
0.447,-0.097,0.408,0.504,-0.155,-0.3,0.456,0.512,0.105,0.771,0.349,0.383,0.518,0.224,-0.276,0.138
0.448,-0.093,0.416,0.51,-0.161,-0.302,0.463,0.503,0.098,0.762,0.341,0.376,0.51,0.22,-0.268,0.136
0.449,-0.1,0.41,0.51,-0.155,-0.305,0.461,0.506,0.102,0.762,0.337,0.372,0.504,0.216,-0.268,0.132
0.45,-0.089,0.412,0.501,-0.162,-0.295,0.457,0.512,0.101,0.76,0.334,0.371,0.502,0.21,-0.277,0.136
0.451,-0.084,0.436,0.52,-0.176,-0.302,0.478,0.513,0.101,0.761,0.336,0.372,0.5,0.209,-0.261,0.136
0.452,-0.091,0.445,0.536,-0.176,-0.315,0.49,0.51,0.097,0.755,0.326,0.363,0.491,0.206,-0.245,0.132
0.453,-0.09,0.441,0.53,-0.174,-0.311,0.485,0.507,0.096,0.751,0.32,0.36,0.486,0.205,-0.243,0.129
0.454,-0.087,0.443,0.529,-0.177,-0.308,0.486,0.5,0.09,0.749,0.318,0.357,0.483,0.203,-0.23,0.126
0.455,-0.082,0.453,0.534,-0.185,-0.308,0.493,0.502,0.086,0.747,0.316,0.352,0.482,0.203,-0.236,0.125
0.456,-0.081,0.453,0.533,-0.185,-0.307,0.492,0.511,0.102,0.758,0.325,0.357,0.488,0.207,-0.251,0.121
0.457,-0.082,0.427,0.509,-0.172,-0.296,0.469,0.51,0.108,0.762,0.333,0.361,0.488,0.204,-0.274,0.121
0.458,-0.072,0.423,0.495,-0.174,-0.284,0.459,0.518,0.116,0.769,0.34,0.366,0.497,0.21,-0.282,0.12
0.459,-0.076,0.423,0.499,-0.173,-0.288,0.461,0.527,0.123,0.773,0.342,0.366,0.501,0.216,-0.272,0.118
0.46,-0.09,0.425,0.515,-0.167,-0.303,0.47,0.527,0.124,0.775,0.343,0.363,0.495,0.215,-0.265,0.114
0.461,-0.101,0.427,0.527,-0.163,-0.315,0.477,0.526,0.122,0.771,0.339,0.356,0.487,0.212,-0.259,0.116
0.462,-0.104,0.416,0.52,-0.155,-0.313,0.468,0.526,0.126,0.773,0.342,0.352,0.483,0.206,-0.269,0.118
0.463,-0.075,0.437,0.512,-0.18,-0.294,0.474,0.528,0.146,0.79,0.364,0.371,0.499,0.212,-0.271,0.119
0.464,-0.07,0.422,0.492,-0.175,-0.281,0.457,0.534,0.143,0.793,0.37,0.381,0.515,0.216,-0.29,0.124
0.465,-0.075,0.414,0.489,-0.169,-0.282,0.452,0.525,0.119,0.775,0.357,0.371,0.516,0.216,-0.29,0.127
0.466,-0.076,0.44,0.516,-0.181,-0.296,0.477,0.514,0.103,0.755,0.338,0.355,0.507,0.219,-0.264,0.129
0.467,-0.096,0.442,0.538,-0.172,-0.317,0.489,0.516,0.106,0.758,0.338,0.349,0.499,0.215,-0.253,0.123
0.468,-0.091,0.448,0.539,-0.178,-0.315,0.493,0.512,0.106,0.755,0.336,0.344,0.493,0.216,-0.256,0.122
0.469,-0.095,0.44,0.533,-0.172,-0.314,0.486,0.524,0.109,0.751,0.333,0.342,0.49,0.214,-0.252,0.113
0.47,-0.093,0.432,0.525,-0.169,-0.309,0.478,0.529,0.115,0.758,0.337,0.344,0.494,0.213,-0.254,0.106
0.471,-0.093,0.424,0.517,-0.165,-0.305,0.47,0.532,0.12,0.76,0.338,0.343,0.491,0.212,-0.273,0.107
0.472,-0.1,0.423,0.523,-0.161,-0.311,0.472,0.54,0.133,0.77,0.347,0.352,0.494,0.207,-0.267,0.102
0.473,-0.092,0.44,0.531,-0.173,-0.311,0.485,0.533,0.126,0.765,0.338,0.348,0.491,0.205,-0.247,0.106
0.474,-0.088,0.469,0.557,-0.191,-0.323,0.513,0.53,0.114,0.754,0.329,0.339,0.48,0.208,-0.227,0.107
0.475,-0.081,0.473,0.554,-0.196,-0.318,0.513,0.516,0.116,0.753,0.334,0.34,0.482,0.214,-0.232,0.111
0.476,-0.084,0.429,0.513,-0.172,-0.299,0.471,0.513,0.122,0.762,0.341,0.344,0.492,0.209,-0.264,0.113
0.477,-0.088,0.404,0.492,-0.157,-0.29,0.448,0.517,0.119,0.759,0.343,0.346,0.498,0.207,-0.285,0.117
0.478,-0.087,0.41,0.497,-0.161,-0.292,0.454,0.513,0.118,0.756,0.343,0.345,0.499,0.21,-0.279,0.12
0.479,-0.087,0.413,0.5,-0.163,-0.294,0.456,0.53,0.131,0.765,0.351,0.352,0.506,0.211,-0.276,0.116
0.48,-0.085,0.415,0.499,-0.165,-0.292,0.458,0.525,0.124,0.751,0.338,0.338,0.495,0.207,-0.278,0.116
0.481,-0.084,0.439,0.523,-0.177,-0.304,0.481,0.508,0.107,0.742,0.326,0.323,0.487,0.203,-0.26,0.116
0.482,-0.094,0.459,0.552,-0.181,-0.324,0.505,0.518,0.115,0.754,0.34,0.33,0.491,0.203,-0.252,0.113
0.483,-0.1,0.458,0.557,-0.178,-0.329,0.507,0.527,0.127,0.761,0.346,0.331,0.491,0.203,-0.244,0.111
0.484,-0.084,0.46,0.544,-0.188,-0.314,0.502,0.521,0.126,0.757,0.344,0.328,0.491,0.205,-0.241,0.115
0.485,-0.09,0.456,0.546,-0.182,-0.319,0.501,0.518,0.132,0.762,0.346,0.329,0.493,0.206,-0.242,0.117
0.486,-0.097,0.442,0.539,-0.172,-0.318,0.49,0.522,0.138,0.769,0.351,0.333,0.492,0.204,-0.247,0.113
0.487,-0.089,0.421,0.511,-0.166,-0.3,0.467,0.519,0.141,0.772,0.351,0.333,0.485,0.205,-0.258,0.112
0.488,-0.092,0.396,0.487,-0.151,-0.29,0.441,0.522,0.146,0.774,0.349,0.326,0.477,0.203,-0.275,0.11
0.489,-0.087,0.4,0.487,-0.155,-0.287,0.443,0.534,0.151,0.78,0.357,0.332,0.482,0.203,-0.269,0.105
0.49,-0.103,0.388,0.491,-0.141,-0.297,0.44,0.538,0.16,0.781,0.359,0.335,0.488,0.202,-0.268,0.107
0.491,-0.124,0.377,0.501,-0.126,-0.314,0.439,0.538,0.158,0.784,0.363,0.339,0.492,0.207,-0.278,0.111
0.492,-0.117,0.402,0.518,-0.142,-0.318,0.46,0.542,0.155,0.789,0.366,0.344,0.494,0.208,-0.263,0.108
0.493,-0.1,0.42,0.52,-0.16,-0.31,0.47,0.538,0.144,0.779,0.357,0.34,0.486,0.206,-0.255,0.111
0.494,-0.096,0.433,0.529,-0.168,-0.313,0.481,0.543,0.144,0.784,0.361,0.343,0.488,0.203,-0.247,0.111
0.495,-0.107,0.434,0.541,-0.163,-0.325,0.487,0.537,0.144,0.778,0.357,0.339,0.483,0.196,-0.244,0.111
0.496,-0.103,0.445,0.548,-0.171,-0.326,0.496,0.531,0.134,0.77,0.352,0.337,0.483,0.199,-0.248,0.113
0.497,-0.101,0.425,0.526,-0.162,-0.314,0.475,0.516,0.118,0.754,0.338,0.325,0.478,0.197,-0.263,0.123
0.498,-0.102,0.412,0.513,-0.155,-0.307,0.463,0.513,0.121,0.748,0.334,0.323,0.477,0.2,-0.266,0.126
0.499,-0.086,0.42,0.507,-0.167,-0.297,0.463,0.531,0.133,0.759,0.345,0.334,0.489,0.204,-0.271,0.121
0.5,-0.076,0.421,0.497,-0.172,-0.287,0.459,0.524,0.124,0.754,0.339,0.329,0.488,0.205,-0.275,0.124
0.501,-0.088,0.431,0.519,-0.171,-0.304,0.475,0.538,0.141,0.761,0.344,0.332,0.491,0.202,-0.259,0.118
0.502,-0.092,0.429,0.521,-0.168,-0.307,0.474,0.539,0.132,0.751,0.34,0.327,0.492,0.201,-0.263,0.119
0.503,-0.083,0.443,0.526,-0.18,-0.304,0.484,0.532,0.13,0.75,0.338,0.323,0.493,0.205,-0.264,0.124
0.504,-0.093,0.446,0.538,-0.176,-0.316,0.492,0.532,0.14,0.752,0.339,0.325,0.493,0.196,-0.263,0.124
0.505,-0.101,0.432,0.532,-0.165,-0.317,0.482,0.524,0.128,0.747,0.337,0.324,0.492,0.194,-0.264,0.122
0.506,-0.11,0.429,0.54,-0.159,-0.325,0.484,0.525,0.13,0.753,0.34,0.324,0.49,0.195,-0.263,0.115
0.507,-0.13,0.417,0.547,-0.143,-0.339,0.481,0.522,0.125,0.748,0.335,0.322,0.486,0.196,-0.262,0.107
0.508,-0.134,0.398,0.531,-0.132,-0.333,0.464,0.531,0.134,0.757,0.344,0.328,0.486,0.193,-0.274,0.102
0.509,-0.129,0.414,0.542,-0.142,-0.336,0.478,0.53,0.135,0.759,0.344,0.325,0.477,0.191,-0.269,0.103
0.51,-0.11,0.431,0.541,-0.16,-0.326,0.486,0.531,0.135,0.759,0.342,0.328,0.477,0.198,-0.256,0.107
0.511,-0.096,0.42,0.516,-0.162,-0.306,0.468,0.544,0.15,0.773,0.354,0.341,0.49,0.2,-0.262,0.11
0.512,-0.088,0.435,0.523,-0.173,-0.306,0.479,0.547,0.146,0.771,0.351,0.341,0.492,0.202,-0.252,0.114
0.513,-0.08,0.455,0.534,-0.186,-0.307,0.494,0.546,0.144,0.768,0.343,0.336,0.485,0.202,-0.249,0.114
0.514,-0.085,0.444,0.528,-0.179,-0.306,0.486,0.538,0.142,0.766,0.341,0.335,0.48,0.199,-0.252,0.114
0.515,-0.081,0.443,0.523,-0.18,-0.302,0.482,0.549,0.148,0.768,0.344,0.34,0.485,0.202,-0.251,0.113
0.516,-0.079,0.443,0.521,-0.181,-0.3,0.481,0.545,0.148,0.769,0.347,0.341,0.489,0.209,-0.258,0.117
0.517,-0.1,0.426,0.526,-0.163,-0.313,0.476,0.547,0.149,0.77,0.347,0.34,0.484,0.204,-0.253,0.118
0.518,-0.092,0.418,0.51,-0.162,-0.302,0.464,0.54,0.143,0.762,0.34,0.333,0.478,0.197,-0.26,0.121
0.519,-0.095,0.407,0.502,-0.155,-0.298,0.454,0.534,0.143,0.761,0.341,0.336,0.479,0.193,-0.281,0.12
0.52,-0.117,0.412,0.529,-0.147,-0.324,0.47,0.564,0.157,0.768,0.344,0.339,0.48,0.179,-0.268,0.104
0.521,-0.104,0.422,0.526,-0.159,-0.315,0.473,0.548,0.143,0.755,0.33,0.324,0.472,0.171,-0.254,0.102
0.522,-0.102,0.406,0.508,-0.151,-0.305,0.457,0.541,0.145,0.757,0.335,0.324,0.474,0.172,-0.272,0.107
0.523,-0.094,0.408,0.502,-0.157,-0.298,0.455,0.544,0.158,0.766,0.343,0.33,0.48,0.177,-0.275,0.108
0.524,-0.094,0.422,0.516,-0.164,-0.305,0.469,0.535,0.155,0.76,0.337,0.32,0.467,0.174,-0.268,0.107
0.525,-0.092,0.448,0.54,-0.177,-0.317,0.494,0.524,0.147,0.756,0.33,0.314,0.457,0.177,-0.26,0.106
0.526,-0.068,0.468,0.535,-0.2,-0.301,0.501,0.513,0.139,0.756,0.33,0.316,0.462,0.178,-0.258,0.107
0.527,-0.061,0.471,0.532,-0.204,-0.296,0.501,0.529,0.153,0.767,0.342,0.329,0.475,0.182,-0.255,0.107
0.528,-0.068,0.488,0.556,-0.21,-0.312,0.522,0.528,0.14,0.756,0.331,0.325,0.473,0.185,-0.235,0.111
0.529,-0.069,0.502,0.571,-0.216,-0.32,0.536,0.512,0.111,0.735,0.314,0.313,0.465,0.186,-0.221,0.113
0.53,-0.071,0.509,0.581,-0.218,-0.327,0.545,0.519,0.119,0.739,0.317,0.322,0.469,0.193,-0.215,0.114
0.531,-0.082,0.492,0.574,-0.204,-0.328,0.532,0.513,0.117,0.733,0.307,0.315,0.464,0.191,-0.227,0.122
0.532,-0.096,0.443,0.537,-0.173,-0.317,0.49,0.519,0.121,0.738,0.311,0.323,0.475,0.194,-0.247,0.127
0.533,-0.128,0.425,0.553,-0.148,-0.341,0.489,0.537,0.133,0.748,0.317,0.329,0.476,0.189,-0.244,0.121
0.534,-0.141,0.446,0.587,-0.152,-0.364,0.516,0.524,0.128,0.742,0.307,0.324,0.465,0.187,-0.226,0.12
0.535,-0.144,0.43,0.575,-0.142,-0.36,0.502,0.526,0.131,0.744,0.311,0.331,0.467,0.189,-0.234,0.117
0.536,-0.127,0.413,0.539,-0.143,-0.333,0.475,0.528,0.129,0.743,0.315,0.33,0.465,0.187,-0.256,0.12
0.537,-0.108,0.41,0.518,-0.15,-0.314,0.465,0.533,0.131,0.748,0.318,0.336,0.465,0.183,-0.269,0.121
0.538,-0.087,0.431,0.519,-0.171,-0.303,0.475,0.556,0.148,0.762,0.33,0.351,0.477,0.185,-0.262,0.114
0.539,-0.073,0.451,0.523,-0.188,-0.299,0.487,0.555,0.158,0.771,0.341,0.36,0.489,0.188,-0.245,0.115
0.54,-0.107,0.423,0.53,-0.158,-0.319,0.477,0.555,0.15,0.768,0.336,0.354,0.488,0.183,-0.256,0.117
0.541,-0.107,0.415,0.523,-0.153,-0.316,0.469,0.555,0.151,0.767,0.338,0.36,0.498,0.188,-0.26,0.115
0.542,-0.1,0.412,0.512,-0.155,-0.306,0.462,0.564,0.161,0.775,0.347,0.37,0.506,0.186,-0.266,0.117
0.543,-0.102,0.418,0.519,-0.158,-0.311,0.469,0.573,0.168,0.777,0.349,0.367,0.5,0.182,-0.272,0.117
0.544,-0.104,0.443,0.546,-0.169,-0.326,0.494,0.564,0.153,0.763,0.338,0.355,0.487,0.176,-0.252,0.114
0.545,-0.114,0.438,0.551,-0.162,-0.333,0.494,0.551,0.141,0.751,0.327,0.348,0.481,0.177,-0.252,0.115
0.546,-0.115,0.428,0.543,-0.157,-0.329,0.485,0.547,0.151,0.752,0.325,0.347,0.482,0.179,-0.254,0.116
0.547,-0.119,0.441,0.56,-0.161,-0.34,0.5,0.528,0.135,0.738,0.309,0.333,0.47,0.176,-0.244,0.118
0.548,-0.105,0.459,0.564,-0.176,-0.335,0.511,0.511,0.12,0.73,0.301,0.327,0.469,0.182,-0.234,0.124
0.549,-0.102,0.473,0.574,-0.185,-0.338,0.523,0.534,0.14,0.747,0.315,0.34,0.48,0.185,-0.222,0.121
0.55,-0.106,0.477,0.584,-0.185,-0.345,0.53,0.546,0.152,0.756,0.322,0.343,0.486,0.184,-0.217,0.12
0.551,-0.096,0.47,0.565,-0.186,-0.331,0.517,0.545,0.158,0.76,0.327,0.346,0.493,0.187,-0.224,0.123
0.552,-0.092,0.466,0.557,-0.186,-0.325,0.511,0.543,0.154,0.762,0.326,0.351,0.498,0.187,-0.228,0.126
0.553,-0.086,0.494,0.58,-0.204,-0.333,0.536,0.537,0.144,0.752,0.316,0.344,0.492,0.184,-0.214,0.126
0.554,-0.084,0.512,0.597,-0.213,-0.341,0.554,0.544,0.142,0.753,0.318,0.347,0.493,0.184,-0.205,0.12
0.555,-0.086,0.49,0.577,-0.201,-0.332,0.533,0.54,0.141,0.752,0.317,0.347,0.493,0.182,-0.217,0.124
0.556,-0.076,0.481,0.557,-0.202,-0.317,0.518,0.539,0.147,0.75,0.32,0.348,0.494,0.187,-0.229,0.13
0.557,-0.086,0.465,0.551,-0.189,-0.319,0.507,0.538,0.152,0.758,0.327,0.353,0.497,0.191,-0.233,0.129
0.558,-0.102,0.434,0.537,-0.166,-0.32,0.485,0.539,0.157,0.762,0.328,0.354,0.492,0.191,-0.24,0.129
0.559,-0.1,0.452,0.552,-0.175,-0.326,0.501,0.54,0.15,0.754,0.322,0.35,0.489,0.192,-0.234,0.128
0.56,-0.106,0.476,0.583,-0.184,-0.345,0.529,0.533,0.14,0.742,0.31,0.336,0.475,0.189,-0.215,0.126
0.561,-0.127,0.457,0.585,-0.165,-0.356,0.52,0.531,0.142,0.743,0.312,0.333,0.471,0.188,-0.222,0.122
0.562,-0.118,0.446,0.564,-0.163,-0.341,0.504,0.537,0.14,0.744,0.316,0.334,0.475,0.184,-0.24,0.122
0.563,-0.112,0.444,0.554,-0.166,-0.333,0.498,0.544,0.146,0.746,0.321,0.337,0.48,0.183,-0.248,0.123
0.564,-0.115,0.446,0.56,-0.165,-0.338,0.502,0.548,0.153,0.749,0.325,0.34,0.482,0.181,-0.249,0.118
0.565,-0.103,0.459,0.562,-0.177,-0.333,0.51,0.552,0.148,0.745,0.319,0.334,0.477,0.177,-0.234,0.118
0.566,-0.111,0.454,0.564,-0.171,-0.338,0.509,0.548,0.146,0.742,0.316,0.329,0.473,0.174,-0.222,0.118
0.567,-0.114,0.457,0.572,-0.171,-0.343,0.514,0.545,0.137,0.738,0.315,0.33,0.472,0.176,-0.22,0.118
0.568,-0.1,0.461,0.561,-0.18,-0.331,0.511,0.545,0.127,0.73,0.307,0.326,0.477,0.178,-0.214,0.12
0.569,-0.09,0.468,0.557,-0.188,-0.324,0.512,0.539,0.128,0.728,0.308,0.327,0.488,0.186,-0.204,0.121
0.57,-0.101,0.483,0.585,-0.191,-0.343,0.534,0.54,0.13,0.734,0.315,0.332,0.495,0.193,-0.206,0.121
0.571,-0.103,0.496,0.6,-0.196,-0.351,0.547,0.541,0.135,0.738,0.317,0.335,0.497,0.197,-0.202,0.117
0.572,-0.102,0.499,0.601,-0.199,-0.351,0.549,0.537,0.141,0.742,0.317,0.338,0.497,0.201,-0.199,0.11
0.573,-0.107,0.486,0.595,-0.189,-0.351,0.54,0.546,0.143,0.74,0.312,0.334,0.497,0.196,-0.205,0.105
0.574,-0.11,0.481,0.59,-0.185,-0.35,0.535,0.535,0.138,0.734,0.306,0.329,0.493,0.197,-0.203,0.111
0.575,-0.119,0.458,0.577,-0.169,-0.348,0.517,0.531,0.139,0.736,0.31,0.332,0.493,0.194,-0.213,0.116
0.576,-0.106,0.478,0.585,-0.185,-0.346,0.531,0.548,0.151,0.743,0.317,0.335,0.497,0.196,-0.201,0.116
0.577,-0.095,0.513,0.609,-0.208,-0.352,0.561,0.547,0.155,0.75,0.322,0.334,0.492,0.195,-0.183,0.117
0.578,-0.1,0.503,0.603,-0.202,-0.351,0.553,0.56,0.157,0.754,0.331,0.34,0.494,0.191,-0.191,0.115
0.579,-0.093,0.508,0.602,-0.207,-0.348,0.555,0.555,0.159,0.753,0.333,0.339,0.494,0.192,-0.197,0.116
0.58,-0.092,0.498,0.591,-0.203,-0.342,0.544,0.544,0.154,0.751,0.331,0.336,0.493,0.19,-0.201,0.119
0.581,-0.095,0.482,0.578,-0.193,-0.337,0.53,0.548,0.149,0.746,0.328,0.331,0.494,0.191,-0.201,0.122
0.582,-0.102,0.498,0.601,-0.197,-0.352,0.549,0.553,0.15,0.745,0.327,0.325,0.491,0.19,-0.197,0.12
0.583,-0.118,0.492,0.611,-0.187,-0.364,0.551,0.558,0.16,0.749,0.336,0.328,0.499,0.191,-0.203,0.121
0.584,-0.114,0.489,0.603,-0.188,-0.358,0.546,0.555,0.162,0.75,0.337,0.327,0.502,0.195,-0.201,0.125
0.585,-0.101,0.51,0.611,-0.204,-0.356,0.56,0.547,0.153,0.746,0.333,0.324,0.5,0.195,-0.189,0.127
0.586,-0.101,0.52,0.621,-0.209,-0.361,0.57,0.547,0.153,0.745,0.334,0.325,0.496,0.193,-0.185,0.125
0.587,-0.076,0.531,0.608,-0.227,-0.343,0.57,0.546,0.153,0.748,0.337,0.33,0.5,0.197,-0.181,0.126
0.588,-0.066,0.523,0.589,-0.229,-0.328,0.556,0.549,0.148,0.744,0.335,0.334,0.508,0.192,-0.19,0.128
0.589,-0.086,0.517,0.603,-0.215,-0.344,0.559,0.545,0.143,0.734,0.325,0.323,0.503,0.184,-0.188,0.127
0.59,-0.091,0.529,0.621,-0.218,-0.356,0.575,0.528,0.135,0.726,0.315,0.307,0.49,0.188,-0.172,0.13
0.591,-0.088,0.533,0.622,-0.222,-0.355,0.578,0.533,0.138,0.727,0.315,0.305,0.487,0.185,-0.167,0.131
0.592,-0.084,0.542,0.626,-0.229,-0.355,0.584,0.528,0.141,0.731,0.317,0.307,0.489,0.187,-0.159,0.135
0.593,-0.076,0.55,0.626,-0.236,-0.351,0.588,0.528,0.144,0.739,0.323,0.318,0.497,0.191,-0.146,0.134
0.594,-0.062,0.56,0.622,-0.248,-0.343,0.591,0.525,0.142,0.735,0.318,0.315,0.502,0.179,-0.139,0.135
0.595,-0.055,0.573,0.627,-0.258,-0.342,0.6,0.523,0.142,0.737,0.318,0.311,0.503,0.177,-0.145,0.136
0.596,-0.07,0.574,0.642,-0.252,-0.356,0.608,0.537,0.155,0.747,0.328,0.32,0.508,0.178,-0.146,0.133
0.597,-0.064,0.559,0.623,-0.247,-0.344,0.591,0.53,0.141,0.735,0.319,0.311,0.505,0.179,-0.159,0.134
0.598,-0.069,0.544,0.613,-0.237,-0.341,0.579,0.538,0.142,0.739,0.324,0.318,0.515,0.187,-0.157,0.132
0.599,-0.071,0.547,0.618,-0.237,-0.344,0.583,0.545,0.157,0.748,0.334,0.329,0.522,0.19,-0.144,0.133
0.6,-0.058,0.542,0.6,-0.241,-0.329,0.571,0.545,0.143,0.738,0.325,0.321,0.515,0.192,-0.153,0.134
0.601,-0.074,0.527,0.602,-0.226,-0.339,0.564,0.541,0.145,0.741,0.33,0.327,0.521,0.194,-0.151,0.137
0.602,-0.083,0.525,0.608,-0.221,-0.345,0.567,0.538,0.152,0.745,0.339,0.335,0.529,0.199,-0.15,0.141
0.603,-0.084,0.544,0.628,-0.23,-0.356,0.587,0.539,0.143,0.734,0.33,0.322,0.521,0.198,-0.135,0.142
0.604,-0.085,0.545,0.63,-0.23,-0.357,0.588,0.533,0.142,0.729,0.324,0.318,0.521,0.199,-0.133,0.15
0.605,-0.09,0.545,0.634,-0.227,-0.362,0.59,0.523,0.143,0.729,0.325,0.322,0.525,0.201,-0.137,0.15
0.606,-0.083,0.557,0.64,-0.236,-0.362,0.599,0.514,0.138,0.729,0.325,0.324,0.527,0.197,-0.13,0.147
0.607,-0.075,0.563,0.638,-0.243,-0.357,0.601,0.514,0.14,0.729,0.324,0.325,0.53,0.2,-0.136,0.145
0.608,-0.073,0.562,0.636,-0.244,-0.355,0.599,0.514,0.133,0.723,0.319,0.324,0.533,0.201,-0.135,0.144
0.609,-0.068,0.553,0.622,-0.242,-0.345,0.588,0.517,0.127,0.72,0.317,0.323,0.536,0.202,-0.136,0.143
0.61,-0.068,0.571,0.638,-0.251,-0.353,0.604,0.507,0.117,0.71,0.305,0.314,0.527,0.201,-0.128,0.139
0.611,-0.061,0.574,0.635,-0.256,-0.348,0.604,0.498,0.105,0.702,0.297,0.31,0.523,0.199,-0.131,0.143
0.612,-0.062,0.581,0.643,-0.259,-0.353,0.612,0.506,0.107,0.704,0.297,0.314,0.527,0.205,-0.127,0.147
0.613,-0.072,0.573,0.645,-0.25,-0.359,0.609,0.504,0.113,0.711,0.303,0.324,0.529,0.204,-0.119,0.144
0.614,-0.077,0.554,0.631,-0.238,-0.354,0.593,0.501,0.115,0.712,0.304,0.329,0.527,0.204,-0.119,0.143
0.615,-0.037,0.588,0.625,-0.275,-0.331,0.606,0.504,0.122,0.715,0.31,0.337,0.536,0.215,-0.107,0.143
0.616,-0.019,0.605,0.624,-0.292,-0.322,0.614,0.505,0.12,0.717,0.315,0.344,0.542,0.218,-0.111,0.144
0.617,-0.018,0.634,0.651,-0.308,-0.335,0.643,0.506,0.109,0.711,0.311,0.344,0.542,0.22,-0.098,0.148
0.618,-0.019,0.632,0.651,-0.306,-0.336,0.641,0.519,0.132,0.731,0.334,0.369,0.562,0.224,-0.115,0.148
0.619,-0.04,0.622,0.661,-0.29,-0.351,0.641,0.517,0.133,0.73,0.336,0.372,0.562,0.222,-0.12,0.15
0.62,-0.007,0.673,0.68,-0.333,-0.344,0.676,0.502,0.104,0.708,0.316,0.357,0.553,0.226,-0.088,0.159
0.621,-0.005,0.674,0.679,-0.335,-0.342,0.676,0.501,0.099,0.701,0.31,0.355,0.554,0.234,-0.09,0.16
0.622,-0.036,0.638,0.674,-0.301,-0.355,0.656,0.491,0.092,0.695,0.307,0.351,0.552,0.226,-0.099,0.16
0.623,-0.042,0.617,0.658,-0.286,-0.35,0.637,0.479,0.095,0.704,0.319,0.359,0.562,0.227,-0.117,0.164
0.624,-0.045,0.604,0.648,-0.279,-0.346,0.625,0.487,0.103,0.708,0.325,0.366,0.569,0.238,-0.115,0.166
0.625,-0.046,0.594,0.64,-0.274,-0.344,0.617,0.491,0.093,0.7,0.315,0.359,0.561,0.236,-0.102,0.165
0.626,-0.047,0.588,0.634,-0.27,-0.341,0.611,0.479,0.085,0.694,0.309,0.357,0.558,0.241,-0.103,0.164
0.627,-0.054,0.578,0.632,-0.262,-0.343,0.605,0.471,0.084,0.689,0.305,0.357,0.555,0.244,-0.106,0.17
0.628,-0.063,0.573,0.635,-0.255,-0.349,0.604,0.462,0.08,0.696,0.312,0.365,0.554,0.241,-0.102,0.167
0.629,-0.06,0.579,0.639,-0.259,-0.35,0.609,0.452,0.077,0.698,0.316,0.371,0.554,0.245,-0.103,0.167
0.63,-0.055,0.574,0.628,-0.259,-0.342,0.601,0.451,0.071,0.695,0.316,0.373,0.554,0.253,-0.124,0.176
0.631,-0.059,0.588,0.646,-0.264,-0.353,0.617,0.455,0.074,0.701,0.32,0.38,0.556,0.26,-0.11,0.177
0.632,-0.053,0.637,0.691,-0.291,-0.372,0.664,0.446,0.061,0.685,0.301,0.363,0.54,0.259,-0.066,0.182
0.633,-0.051,0.666,0.716,-0.307,-0.384,0.691,0.422,0.035,0.661,0.278,0.344,0.521,0.252,-0.041,0.184
0.634,-0.032,0.66,0.692,-0.314,-0.362,0.676,0.429,0.038,0.663,0.28,0.35,0.529,0.251,-0.045,0.179
0.635,-0.024,0.638,0.662,-0.307,-0.344,0.65,0.438,0.048,0.673,0.289,0.358,0.538,0.245,-0.06,0.174
0.636,-0.039,0.631,0.67,-0.295,-0.355,0.65,0.438,0.052,0.676,0.294,0.361,0.54,0.24,-0.068,0.167
0.637,-0.034,0.615,0.648,-0.29,-0.342,0.631,0.448,0.045,0.67,0.287,0.356,0.536,0.234,-0.085,0.169
0.638,-0.025,0.606,0.63,-0.29,-0.328,0.618,0.442,0.038,0.663,0.284,0.355,0.536,0.234,-0.095,0.176
0.639,-0.007,0.613,0.619,-0.302,-0.313,0.616,0.444,0.036,0.664,0.289,0.362,0.546,0.235,-0.096,0.178
0.64,-0.005,0.609,0.614,-0.301,-0.309,0.611,0.454,0.038,0.669,0.291,0.363,0.551,0.23,-0.099,0.176
0.641,-0.021,0.627,0.648,-0.302,-0.335,0.637,0.445,0.035,0.661,0.285,0.357,0.547,0.229,-0.088,0.177
0.642,-0.025,0.622,0.646,-0.298,-0.336,0.633,0.432,0.023,0.654,0.283,0.353,0.543,0.227,-0.087,0.18
0.643,-0.036,0.6,0.635,-0.281,-0.337,0.618,0.429,0.027,0.657,0.295,0.366,0.555,0.23,-0.106,0.183
0.644,-0.045,0.597,0.641,-0.276,-0.344,0.619,0.413,0.019,0.652,0.29,0.359,0.551,0.229,-0.117,0.189
0.645,-0.026,0.619,0.645,-0.296,-0.336,0.632,0.414,0.021,0.655,0.291,0.358,0.545,0.23,-0.095,0.185
0.646,-0.015,0.619,0.633,-0.302,-0.324,0.626,0.426,0.027,0.657,0.292,0.361,0.542,0.233,-0.089,0.182
0.647,-0.006,0.607,0.613,-0.3,-0.31,0.61,0.408,0.018,0.657,0.29,0.358,0.539,0.233,-0.103,0.181
0.648,0.001,0.624,0.622,-0.312,-0.31,0.623,0.407,0.027,0.668,0.303,0.37,0.545,0.237,-0.099,0.172
0.649,-0.004,0.623,0.626,-0.309,-0.315,0.625,0.409,0.025,0.67,0.304,0.371,0.545,0.24,-0.103,0.172
0.65,-0.011,0.624,0.634,-0.305,-0.323,0.629,0.408,0.029,0.676,0.311,0.38,0.551,0.242,-0.102,0.171
0.651,-0.009,0.63,0.638,-0.31,-0.324,0.633,0.421,0.041,0.688,0.322,0.391,0.556,0.242,-0.09,0.167
0.652,-0.013,0.627,0.639,-0.307,-0.327,0.633,0.415,0.043,0.69,0.321,0.391,0.553,0.245,-0.087,0.171
0.653,-0.009,0.62,0.628,-0.304,-0.319,0.624,0.414,0.04,0.689,0.317,0.389,0.544,0.242,-0.099,0.172
0.654,-0.009,0.601,0.609,-0.295,-0.308,0.604,0.413,0.035,0.689,0.316,0.39,0.541,0.237,-0.11,0.171
0.655,-0.021,0.59,0.611,-0.284,-0.317,0.6,0.418,0.04,0.7,0.329,0.4,0.546,0.238,-0.11,0.169
0.656,-0.029,0.589,0.618,-0.28,-0.323,0.603,0.434,0.051,0.708,0.336,0.402,0.54,0.231,-0.117,0.169
0.657,-0.043,0.576,0.619,-0.267,-0.331,0.597,0.44,0.059,0.711,0.338,0.402,0.53,0.225,-0.128,0.167
0.658,-0.044,0.568,0.612,-0.262,-0.328,0.589,0.449,0.066,0.718,0.345,0.406,0.53,0.225,-0.132,0.165
0.659,-0.031,0.56,0.591,-0.264,-0.311,0.576,0.449,0.063,0.716,0.344,0.406,0.535,0.23,-0.136,0.17
0.66,-0.03,0.547,0.578,-0.258,-0.304,0.562,0.452,0.062,0.717,0.347,0.411,0.54,0.231,-0.147,0.167
0.661,-0.041,0.549,0.591,-0.254,-0.316,0.57,0.457,0.058,0.718,0.347,0.407,0.534,0.226,-0.145,0.163
0.662,-0.045,0.533,0.579,-0.244,-0.312,0.556,0.45,0.052,0.712,0.344,0.402,0.533,0.229,-0.15,0.166
0.663,-0.04,0.523,0.563,-0.241,-0.302,0.542,0.463,0.073,0.73,0.36,0.412,0.539,0.23,-0.165,0.164
0.664,-0.03,0.542,0.573,-0.256,-0.302,0.557,0.469,0.072,0.728,0.358,0.408,0.533,0.224,-0.163,0.161
0.665,-0.041,0.531,0.572,-0.244,-0.306,0.551,0.457,0.051,0.706,0.339,0.393,0.52,0.217,-0.163,0.162
0.666,-0.051,0.519,0.571,-0.234,-0.311,0.545,0.457,0.05,0.708,0.335,0.389,0.516,0.215,-0.171,0.158
0.667,-0.058,0.514,0.573,-0.228,-0.316,0.543,0.448,0.05,0.705,0.329,0.385,0.512,0.215,-0.179,0.159
0.668,-0.058,0.53,0.588,-0.235,-0.323,0.558,0.443,0.046,0.699,0.318,0.375,0.505,0.22,-0.159,0.159
0.669,-0.055,0.541,0.597,-0.242,-0.326,0.569,0.459,0.05,0.699,0.315,0.37,0.502,0.215,-0.143,0.15
0.67,-0.07,0.503,0.574,-0.216,-0.322,0.538,0.448,0.043,0.696,0.313,0.368,0.501,0.213,-0.166,0.152
0.671,-0.089,0.499,0.589,-0.204,-0.34,0.543,0.416,0.024,0.685,0.304,0.36,0.489,0.209,-0.17,0.151
0.672,-0.087,0.523,0.61,-0.217,-0.348,0.566,0.42,0.022,0.686,0.303,0.355,0.484,0.205,-0.147,0.145
0.673,-0.064,0.534,0.598,-0.235,-0.331,0.566,0.444,0.043,0.706,0.317,0.368,0.493,0.209,-0.146,0.143
0.674,-0.059,0.513,0.573,-0.226,-0.317,0.543,0.459,0.059,0.722,0.333,0.382,0.502,0.209,-0.175,0.14
0.675,-0.058,0.504,0.562,-0.223,-0.31,0.533,0.469,0.075,0.739,0.348,0.396,0.512,0.215,-0.185,0.136
0.676,-0.056,0.542,0.598,-0.243,-0.327,0.57,0.474,0.074,0.738,0.346,0.391,0.503,0.209,-0.161,0.132
0.677,-0.058,0.54,0.598,-0.24,-0.329,0.569,0.474,0.069,0.734,0.341,0.384,0.497,0.203,-0.159,0.131
0.678,-0.054,0.518,0.573,-0.232,-0.314,0.545,0.466,0.069,0.733,0.342,0.382,0.488,0.202,-0.176,0.134
0.679,-0.051,0.51,0.561,-0.229,-0.306,0.535,0.451,0.065,0.727,0.337,0.376,0.481,0.196,-0.186,0.135
0.68,-0.035,0.51,0.546,-0.237,-0.291,0.528,0.448,0.067,0.733,0.343,0.382,0.49,0.199,-0.191,0.139
0.681,-0.034,0.534,0.568,-0.25,-0.3,0.55,0.456,0.067,0.734,0.344,0.381,0.487,0.199,-0.181,0.137
0.682,-0.049,0.545,0.594,-0.247,-0.322,0.569,0.456,0.071,0.734,0.343,0.379,0.486,0.202,-0.177,0.138
0.683,-0.071,0.522,0.593,-0.225,-0.332,0.557,0.457,0.069,0.733,0.343,0.375,0.478,0.194,-0.193,0.132
0.684,-0.089,0.499,0.589,-0.204,-0.339,0.544,0.461,0.07,0.733,0.342,0.372,0.473,0.182,-0.2,0.124
0.685,-0.093,0.498,0.592,-0.202,-0.343,0.544,0.45,0.056,0.721,0.33,0.361,0.468,0.183,-0.195,0.134
0.686,-0.105,0.494,0.6,-0.194,-0.353,0.546,0.443,0.045,0.712,0.317,0.349,0.462,0.176,-0.186,0.133
0.687,-0.095,0.508,0.604,-0.206,-0.349,0.555,0.461,0.059,0.717,0.318,0.35,0.461,0.171,-0.178,0.123
0.688,-0.084,0.52,0.605,-0.217,-0.344,0.562,0.461,0.051,0.716,0.314,0.344,0.458,0.169,-0.179,0.125
0.689,-0.083,0.518,0.601,-0.217,-0.342,0.559,0.456,0.054,0.721,0.315,0.344,0.458,0.166,-0.174,0.129
0.69,-0.077,0.522,0.6,-0.222,-0.339,0.561,0.46,0.061,0.726,0.32,0.349,0.461,0.168,-0.176,0.129
0.691,-0.075,0.527,0.603,-0.226,-0.34,0.565,0.466,0.064,0.727,0.317,0.348,0.462,0.171,-0.184,0.129
0.692,-0.066,0.533,0.599,-0.233,-0.333,0.566,0.483,0.072,0.735,0.321,0.352,0.467,0.17,-0.176,0.125
0.693,-0.061,0.542,0.604,-0.24,-0.333,0.573,0.491,0.088,0.752,0.334,0.367,0.478,0.168,-0.183,0.128
0.694,-0.06,0.532,0.593,-0.236,-0.327,0.562,0.493,0.093,0.75,0.333,0.369,0.48,0.165,-0.199,0.132
0.695,-0.067,0.519,0.586,-0.226,-0.326,0.552,0.475,0.069,0.735,0.323,0.361,0.475,0.167,-0.202,0.132
0.696,-0.061,0.514,0.576,-0.226,-0.319,0.545,0.466,0.066,0.73,0.319,0.358,0.473,0.168,-0.209,0.135
0.697,-0.064,0.5,0.564,-0.217,-0.315,0.531,0.474,0.08,0.735,0.325,0.362,0.476,0.169,-0.208,0.131
0.698,-0.093,0.467,0.56,-0.186,-0.327,0.513,0.473,0.076,0.74,0.33,0.362,0.473,0.173,-0.224,0.127
0.699,-0.12,0.419,0.539,-0.149,-0.33,0.479,0.477,0.073,0.74,0.33,0.361,0.474,0.17,-0.245,0.123
0.7,-0.134,0.417,0.551,-0.141,-0.343,0.484,0.479,0.074,0.74,0.329,0.353,0.466,0.161,-0.239,0.122
0.701,-0.142,0.419,0.561,-0.138,-0.351,0.489,0.469,0.062,0.726,0.308,0.326,0.445,0.155,-0.238,0.126
0.702,-0.151,0.402,0.553,-0.124,-0.352,0.477,0.471,0.064,0.724,0.306,0.32,0.439,0.152,-0.23,0.123
0.703,-0.155,0.389,0.543,-0.117,-0.349,0.466,0.468,0.068,0.728,0.31,0.318,0.43,0.147,-0.237,0.125
0.704,-0.147,0.41,0.557,-0.131,-0.352,0.483,0.469,0.061,0.722,0.304,0.31,0.425,0.148,-0.239,0.127
0.705,-0.142,0.443,0.585,-0.149,-0.363,0.513,0.483,0.07,0.728,0.309,0.315,0.424,0.148,-0.23,0.123
0.706,-0.147,0.422,0.57,-0.137,-0.358,0.496,0.476,0.067,0.727,0.305,0.31,0.424,0.148,-0.23,0.127
0.707,-0.133,0.42,0.552,-0.143,-0.343,0.486,0.47,0.061,0.722,0.299,0.303,0.431,0.153,-0.227,0.129
0.708,-0.124,0.421,0.545,-0.147,-0.335,0.483,0.473,0.064,0.723,0.299,0.303,0.439,0.158,-0.24,0.139
0.709,-0.138,0.413,0.551,-0.137,-0.345,0.482,0.482,0.081,0.734,0.311,0.316,0.455,0.158,-0.245,0.139
0.71,-0.141,0.426,0.568,-0.142,-0.355,0.497,0.484,0.081,0.734,0.311,0.318,0.457,0.155,-0.238,0.136
0.711,-0.135,0.44,0.574,-0.152,-0.354,0.506,0.469,0.053,0.712,0.288,0.299,0.443,0.154,-0.226,0.144
0.712,-0.129,0.451,0.58,-0.161,-0.354,0.515,0.459,0.055,0.705,0.275,0.288,0.436,0.152,-0.214,0.144
0.713,-0.129,0.455,0.584,-0.163,-0.356,0.519,0.461,0.061,0.712,0.278,0.291,0.444,0.157,-0.206,0.148
0.714,-0.127,0.45,0.577,-0.161,-0.352,0.513,0.469,0.06,0.719,0.286,0.301,0.453,0.16,-0.209,0.149
0.715,-0.129,0.443,0.572,-0.157,-0.35,0.507,0.481,0.067,0.725,0.291,0.304,0.453,0.155,-0.221,0.143
0.716,-0.136,0.443,0.579,-0.152,-0.357,0.51,0.493,0.076,0.729,0.295,0.303,0.45,0.15,-0.225,0.138
0.717,-0.145,0.423,0.569,-0.139,-0.357,0.495,0.491,0.08,0.733,0.3,0.309,0.45,0.148,-0.244,0.137
0.718,-0.134,0.421,0.555,-0.143,-0.345,0.488,0.486,0.077,0.728,0.297,0.305,0.446,0.149,-0.246,0.141
0.719,-0.121,0.448,0.569,-0.163,-0.345,0.508,0.482,0.075,0.723,0.292,0.296,0.433,0.142,-0.23,0.141
0.72,-0.125,0.466,0.591,-0.17,-0.358,0.527,0.475,0.064,0.717,0.292,0.295,0.428,0.136,-0.219,0.139
0.721,-0.117,0.476,0.593,-0.179,-0.355,0.534,0.473,0.061,0.716,0.294,0.299,0.43,0.137,-0.214,0.141
0.722,-0.128,0.463,0.591,-0.168,-0.359,0.526,0.48,0.069,0.724,0.304,0.307,0.432,0.135,-0.218,0.142
0.723,-0.132,0.462,0.594,-0.164,-0.363,0.527,0.481,0.07,0.724,0.309,0.308,0.431,0.136,-0.218,0.143
0.724,-0.127,0.444,0.571,-0.158,-0.349,0.507,0.49,0.074,0.729,0.316,0.315,0.433,0.133,-0.233,0.143
0.725,-0.14,0.419,0.559,-0.14,-0.35,0.489,0.499,0.079,0.732,0.319,0.314,0.434,0.134,-0.239,0.147
0.726,-0.15,0.428,0.578,-0.139,-0.364,0.502,0.485,0.066,0.718,0.304,0.3,0.423,0.134,-0.238,0.146
0.727,-0.15,0.415,0.566,-0.132,-0.358,0.49,0.492,0.068,0.721,0.306,0.301,0.428,0.13,-0.245,0.131
0.728,-0.139,0.418,0.557,-0.139,-0.348,0.487,0.511,0.093,0.742,0.322,0.312,0.446,0.125,-0.243,0.118
0.729,-0.13,0.428,0.558,-0.149,-0.344,0.493,0.509,0.088,0.741,0.321,0.309,0.442,0.124,-0.257,0.119
0.73,-0.132,0.431,0.563,-0.149,-0.347,0.496,0.495,0.077,0.731,0.312,0.297,0.428,0.121,-0.263,0.121
0.731,-0.149,0.425,0.574,-0.138,-0.362,0.499,0.483,0.07,0.718,0.295,0.281,0.418,0.109,-0.253,0.126
0.732,-0.141,0.421,0.563,-0.14,-0.352,0.492,0.482,0.064,0.709,0.283,0.274,0.422,0.113,-0.249,0.132
0.733,-0.137,0.426,0.564,-0.144,-0.35,0.494,0.482,0.058,0.702,0.276,0.27,0.425,0.117,-0.24,0.13
0.734,-0.129,0.447,0.575,-0.159,-0.352,0.511,0.47,0.044,0.689,0.26,0.256,0.413,0.12,-0.218,0.138
0.735,-0.109,0.463,0.572,-0.176,-0.341,0.517,0.465,0.049,0.696,0.266,0.262,0.415,0.131,-0.223,0.142
0.736,-0.132,0.435,0.567,-0.151,-0.35,0.5,0.485,0.057,0.708,0.277,0.271,0.422,0.122,-0.243,0.139
0.737,-0.151,0.455,0.606,-0.151,-0.378,0.529,0.487,0.067,0.71,0.275,0.268,0.417,0.11,-0.226,0.135
0.738,-0.149,0.47,0.62,-0.16,-0.385,0.544,0.471,0.059,0.709,0.273,0.269,0.418,0.112,-0.223,0.137
0.739,-0.167,0.443,0.61,-0.138,-0.389,0.526,0.481,0.067,0.721,0.282,0.276,0.426,0.106,-0.234,0.135
0.74,-0.164,0.448,0.612,-0.141,-0.388,0.529,0.491,0.083,0.73,0.29,0.28,0.43,0.107,-0.234,0.13
0.741,-0.134,0.464,0.597,-0.164,-0.365,0.53,0.489,0.073,0.721,0.282,0.274,0.429,0.114,-0.238,0.135
0.742,-0.14,0.465,0.604,-0.162,-0.372,0.534,0.485,0.069,0.712,0.277,0.267,0.423,0.119,-0.232,0.14
0.743,-0.144,0.455,0.599,-0.155,-0.372,0.526,0.486,0.07,0.715,0.282,0.267,0.421,0.126,-0.239,0.143
0.744,-0.132,0.445,0.576,-0.156,-0.354,0.51,0.493,0.076,0.721,0.288,0.274,0.424,0.128,-0.258,0.145
0.745,-0.147,0.411,0.558,-0.132,-0.353,0.484,0.485,0.069,0.713,0.283,0.271,0.418,0.124,-0.263,0.146
0.746,-0.172,0.374,0.546,-0.101,-0.359,0.46,0.489,0.065,0.707,0.275,0.262,0.411,0.118,-0.267,0.145
0.747,-0.16,0.376,0.535,-0.107,-0.348,0.455,0.502,0.066,0.706,0.273,0.261,0.412,0.121,-0.274,0.145
0.748,-0.147,0.383,0.53,-0.117,-0.34,0.457,0.499,0.069,0.71,0.276,0.266,0.415,0.124,-0.273,0.145
0.749,-0.141,0.427,0.567,-0.143,-0.354,0.496,0.512,0.081,0.721,0.286,0.276,0.417,0.123,-0.242,0.139
0.75,-0.141,0.449,0.59,-0.153,-0.365,0.519,0.527,0.09,0.724,0.287,0.276,0.418,0.121,-0.237,0.138
0.751,-0.148,0.422,0.57,-0.137,-0.359,0.496,0.53,0.094,0.731,0.292,0.283,0.426,0.117,-0.254,0.14
0.752,-0.138,0.428,0.567,-0.145,-0.353,0.497,0.529,0.098,0.736,0.298,0.293,0.432,0.113,-0.25,0.14
0.753,-0.147,0.427,0.574,-0.14,-0.36,0.5,0.514,0.09,0.726,0.284,0.283,0.427,0.113,-0.252,0.145
0.754,-0.148,0.438,0.586,-0.144,-0.367,0.512,0.503,0.079,0.72,0.278,0.28,0.426,0.113,-0.243,0.147
0.755,-0.13,0.458,0.588,-0.164,-0.358,0.522,0.483,0.071,0.708,0.27,0.273,0.42,0.115,-0.233,0.154
0.756,-0.122,0.48,0.602,-0.179,-0.362,0.541,0.478,0.059,0.698,0.263,0.266,0.412,0.116,-0.218,0.155
0.757,-0.131,0.472,0.604,-0.17,-0.367,0.538,0.474,0.056,0.686,0.255,0.26,0.407,0.112,-0.233,0.16
0.758,-0.154,0.441,0.595,-0.142,-0.374,0.517,0.468,0.059,0.692,0.261,0.262,0.411,0.114,-0.25,0.162
0.759,-0.164,0.443,0.607,-0.139,-0.385,0.524,0.479,0.068,0.708,0.276,0.269,0.417,0.113,-0.238,0.153
0.76,-0.155,0.446,0.601,-0.144,-0.379,0.523,0.475,0.069,0.705,0.275,0.267,0.415,0.12,-0.233,0.157
0.761,-0.152,0.448,0.6,-0.147,-0.376,0.523,0.481,0.075,0.713,0.282,0.273,0.422,0.133,-0.228,0.153
0.762,-0.154,0.439,0.594,-0.141,-0.374,0.516,0.492,0.087,0.719,0.289,0.277,0.425,0.132,-0.24,0.15
0.763,-0.171,0.421,0.592,-0.125,-0.382,0.506,0.491,0.091,0.723,0.293,0.276,0.425,0.126,-0.251,0.147
0.764,-0.169,0.423,0.592,-0.127,-0.381,0.507,0.49,0.085,0.72,0.289,0.268,0.418,0.114,-0.263,0.148
0.765,-0.167,0.435,0.602,-0.134,-0.385,0.518,0.478,0.072,0.711,0.279,0.263,0.412,0.106,-0.259,0.151
0.766,-0.164,0.432,0.596,-0.134,-0.381,0.514,0.481,0.081,0.719,0.288,0.277,0.42,0.109,-0.254,0.147
0.767,-0.147,0.425,0.573,-0.139,-0.36,0.499,0.499,0.091,0.723,0.288,0.277,0.422,0.102,-0.258,0.146
0.768,-0.142,0.442,0.585,-0.149,-0.364,0.513,0.496,0.082,0.719,0.281,0.272,0.417,0.099,-0.243,0.143
0.769,-0.14,0.468,0.607,-0.164,-0.373,0.537,0.483,0.077,0.714,0.277,0.276,0.413,0.105,-0.225,0.145
0.77,-0.155,0.452,0.607,-0.147,-0.382,0.529,0.482,0.074,0.708,0.27,0.267,0.412,0.099,-0.235,0.151
0.771,-0.138,0.439,0.576,-0.15,-0.357,0.507,0.497,0.086,0.721,0.281,0.281,0.423,0.098,-0.261,0.152
0.772,-0.115,0.443,0.557,-0.164,-0.337,0.5,0.511,0.098,0.734,0.291,0.296,0.432,0.099,-0.27,0.152
0.773,-0.117,0.439,0.555,-0.161,-0.337,0.496,0.518,0.102,0.738,0.293,0.296,0.431,0.098,-0.274,0.155
0.774,-0.118,0.439,0.557,-0.16,-0.339,0.498,0.518,0.104,0.741,0.297,0.3,0.428,0.1,-0.265,0.152
0.775,-0.13,0.429,0.559,-0.149,-0.345,0.493,0.515,0.1,0.737,0.294,0.294,0.421,0.096,-0.266,0.149
0.776,-0.144,0.438,0.582,-0.146,-0.363,0.509,0.507,0.091,0.722,0.278,0.278,0.405,0.091,-0.259,0.149
0.777,-0.166,0.451,0.617,-0.142,-0.392,0.534,0.498,0.078,0.71,0.267,0.265,0.388,0.091,-0.241,0.147
0.778,-0.161,0.449,0.61,-0.144,-0.386,0.529,0.498,0.077,0.71,0.267,0.264,0.385,0.095,-0.232,0.144
0.779,-0.157,0.426,0.583,-0.135,-0.37,0.504,0.483,0.072,0.706,0.264,0.266,0.389,0.103,-0.236,0.15
0.78,-0.183,0.395,0.578,-0.105,-0.381,0.486,0.486,0.07,0.706,0.267,0.268,0.394,0.106,-0.252,0.15
0.781,-0.187,0.4,0.587,-0.106,-0.388,0.493,0.504,0.083,0.714,0.273,0.273,0.404,0.106,-0.254,0.143
0.782,-0.178,0.416,0.594,-0.118,-0.386,0.504,0.501,0.087,0.713,0.276,0.278,0.408,0.108,-0.25,0.144
0.783,-0.183,0.417,0.601,-0.117,-0.393,0.509,0.498,0.084,0.706,0.274,0.273,0.4,0.099,-0.246,0.144
0.784,-0.181,0.428,0.61,-0.123,-0.396,0.519,0.493,0.082,0.707,0.272,0.27,0.399,0.098,-0.239,0.143
0.785,-0.172,0.44,0.612,-0.133,-0.393,0.525,0.492,0.081,0.712,0.28,0.28,0.406,0.103,-0.236,0.141
0.786,-0.167,0.432,0.6,-0.132,-0.384,0.516,0.496,0.084,0.709,0.276,0.278,0.406,0.106,-0.245,0.145
0.787,-0.162,0.441,0.602,-0.139,-0.382,0.521,0.492,0.086,0.711,0.276,0.276,0.404,0.111,-0.234,0.144
0.788,-0.172,0.439,0.611,-0.134,-0.391,0.524,0.492,0.09,0.717,0.282,0.282,0.403,0.112,-0.23,0.138
0.789,-0.191,0.417,0.608,-0.113,-0.4,0.512,0.489,0.091,0.716,0.278,0.282,0.403,0.112,-0.241,0.141
0.79,-0.19,0.41,0.6,-0.11,-0.396,0.505,0.481,0.086,0.711,0.272,0.275,0.395,0.111,-0.239,0.143
0.791,-0.173,0.414,0.588,-0.12,-0.381,0.501,0.482,0.088,0.711,0.27,0.273,0.39,0.111,-0.244,0.142
0.792,-0.151,0.42,0.572,-0.135,-0.361,0.495,0.487,0.087,0.715,0.271,0.277,0.394,0.114,-0.238,0.143
0.793,-0.149,0.428,0.579,-0.139,-0.364,0.503,0.491,0.095,0.722,0.276,0.282,0.4,0.114,-0.235,0.145
0.794,-0.161,0.446,0.606,-0.142,-0.384,0.525,0.498,0.107,0.731,0.282,0.292,0.408,0.115,-0.231,0.141
0.795,-0.155,0.436,0.591,-0.14,-0.373,0.513,0.509,0.104,0.732,0.285,0.294,0.41,0.11,-0.234,0.138
0.796,-0.16,0.402,0.561,-0.12,-0.361,0.481,0.509,0.105,0.738,0.294,0.305,0.415,0.108,-0.257,0.14
0.797,-0.164,0.398,0.561,-0.116,-0.363,0.479,0.51,0.11,0.74,0.297,0.309,0.416,0.112,-0.259,0.141
0.798,-0.152,0.443,0.595,-0.144,-0.374,0.518,0.494,0.092,0.723,0.284,0.296,0.401,0.107,-0.239,0.142
0.799,-0.155,0.477,0.632,-0.161,-0.394,0.554,0.485,0.079,0.709,0.272,0.283,0.382,0.103,-0.216,0.142
0.8,-0.16,0.467,0.627,-0.153,-0.394,0.546,0.487,0.073,0.702,0.263,0.271,0.366,0.089,-0.22,0.139
0.801,-0.161,0.434,0.595,-0.137,-0.378,0.514,0.478,0.062,0.696,0.261,0.27,0.362,0.081,-0.238,0.138
0.802,-0.173,0.4,0.573,-0.112,-0.373,0.486,0.487,0.076,0.707,0.274,0.278,0.368,0.085,-0.25,0.138
0.803,-0.174,0.386,0.56,-0.105,-0.367,0.472,0.49,0.086,0.715,0.283,0.284,0.377,0.082,-0.266,0.137
0.804,-0.169,0.396,0.565,-0.113,-0.367,0.48,0.492,0.083,0.712,0.284,0.284,0.379,0.083,-0.274,0.135
0.805,-0.162,0.431,0.592,-0.134,-0.377,0.511,0.496,0.093,0.715,0.286,0.286,0.379,0.087,-0.264,0.133
0.806,-0.149,0.443,0.591,-0.146,-0.37,0.516,0.492,0.094,0.721,0.288,0.292,0.386,0.09,-0.267,0.135
0.807,-0.157,0.422,0.579,-0.132,-0.368,0.5,0.501,0.1,0.728,0.296,0.304,0.399,0.095,-0.27,0.137
0.808,-0.169,0.42,0.589,-0.126,-0.379,0.504,0.501,0.098,0.726,0.292,0.299,0.4,0.096,-0.262,0.14
0.809,-0.175,0.423,0.598,-0.123,-0.387,0.51,0.488,0.094,0.72,0.288,0.296,0.396,0.099,-0.258,0.14
0.81,-0.181,0.44,0.622,-0.129,-0.402,0.53,0.507,0.11,0.732,0.303,0.312,0.404,0.098,-0.242,0.132
0.811,-0.16,0.474,0.634,-0.157,-0.398,0.554,0.511,0.113,0.739,0.309,0.319,0.412,0.1,-0.223,0.137
0.812,-0.152,0.464,0.616,-0.155,-0.384,0.539,0.494,0.097,0.728,0.298,0.314,0.412,0.101,-0.233,0.146
0.813,-0.16,0.452,0.611,-0.145,-0.386,0.531,0.489,0.087,0.715,0.281,0.301,0.404,0.1,-0.236,0.146
0.814,-0.158,0.46,0.618,-0.15,-0.389,0.539,0.472,0.072,0.704,0.267,0.289,0.393,0.104,-0.227,0.145
0.815,-0.158,0.473,0.631,-0.157,-0.395,0.551,0.463,0.053,0.685,0.251,0.277,0.381,0.099,-0.208,0.144
0.816,-0.15,0.485,0.636,-0.168,-0.393,0.56,0.469,0.052,0.677,0.244,0.269,0.377,0.099,-0.203,0.146
0.817,-0.164,0.458,0.621,-0.146,-0.393,0.539,0.473,0.056,0.686,0.253,0.276,0.389,0.105,-0.225,0.149
0.818,-0.169,0.428,0.598,-0.13,-0.384,0.513,0.495,0.073,0.698,0.261,0.281,0.402,0.109,-0.239,0.147
0.819,-0.158,0.432,0.59,-0.137,-0.374,0.51,0.499,0.077,0.702,0.266,0.283,0.404,0.112,-0.252,0.142
0.82,-0.163,0.443,0.606,-0.139,-0.385,0.524,0.5,0.076,0.702,0.271,0.285,0.402,0.108,-0.246,0.131
0.821,-0.158,0.46,0.619,-0.15,-0.389,0.539,0.512,0.078,0.703,0.272,0.286,0.403,0.113,-0.241,0.129
0.822,-0.156,0.446,0.602,-0.144,-0.379,0.523,0.499,0.079,0.703,0.273,0.289,0.404,0.113,-0.259,0.137
0.823,-0.173,0.421,0.595,-0.124,-0.384,0.507,0.507,0.099,0.713,0.283,0.292,0.403,0.108,-0.258,0.14
0.824,-0.175,0.439,0.614,-0.132,-0.395,0.526,0.516,0.097,0.719,0.291,0.296,0.404,0.116,-0.234,0.137
0.825,-0.16,0.436,0.596,-0.138,-0.378,0.516,0.52,0.091,0.719,0.294,0.299,0.407,0.116,-0.235,0.136
0.826,-0.138,0.427,0.565,-0.144,-0.351,0.495,0.506,0.087,0.711,0.285,0.291,0.404,0.112,-0.251,0.145
0.827,-0.151,0.428,0.579,-0.138,-0.365,0.503,0.494,0.081,0.7,0.273,0.281,0.391,0.102,-0.246,0.148
0.828,-0.169,0.428,0.597,-0.13,-0.383,0.512,0.496,0.084,0.703,0.276,0.284,0.388,0.098,-0.246,0.143
0.829,-0.172,0.422,0.594,-0.125,-0.383,0.508,0.477,0.081,0.7,0.275,0.284,0.387,0.1,-0.26,0.139
0.83,-0.175,0.414,0.589,-0.119,-0.382,0.501,0.482,0.079,0.698,0.269,0.275,0.383,0.104,-0.267,0.141
0.831,-0.174,0.411,0.586,-0.118,-0.381,0.498,0.478,0.076,0.697,0.268,0.276,0.386,0.111,-0.272,0.146
0.832,-0.191,0.407,0.598,-0.108,-0.395,0.502,0.479,0.081,0.701,0.271,0.279,0.388,0.106,-0.266,0.139
0.833,-0.177,0.411,0.589,-0.117,-0.383,0.499,0.472,0.077,0.697,0.262,0.271,0.387,0.107,-0.262,0.141
0.834,-0.172,0.414,0.585,-0.121,-0.379,0.499,0.459,0.072,0.693,0.258,0.268,0.386,0.104,-0.261,0.14
0.835,-0.178,0.425,0.604,-0.123,-0.391,0.514,0.477,0.082,0.702,0.266,0.275,0.393,0.097,-0.25,0.132
0.836,-0.174,0.431,0.606,-0.129,-0.39,0.518,0.483,0.089,0.71,0.275,0.284,0.402,0.099,-0.252,0.134
0.837,-0.17,0.424,0.595,-0.127,-0.383,0.509,0.488,0.089,0.71,0.277,0.287,0.4,0.095,-0.253,0.138
0.838,-0.152,0.427,0.58,-0.138,-0.366,0.503,0.498,0.092,0.708,0.277,0.289,0.405,0.096,-0.26,0.14
0.839,-0.148,0.441,0.59,-0.145,-0.369,0.515,0.499,0.093,0.709,0.281,0.292,0.409,0.101,-0.263,0.143
0.84,-0.152,0.433,0.586,-0.14,-0.369,0.509,0.501,0.092,0.71,0.28,0.295,0.41,0.101,-0.254,0.144
0.841,-0.153,0.42,0.573,-0.133,-0.363,0.496,0.502,0.085,0.705,0.276,0.293,0.415,0.101,-0.268,0.148
0.842,-0.152,0.443,0.595,-0.144,-0.373,0.518,0.509,0.078,0.7,0.275,0.289,0.413,0.1,-0.256,0.145
0.843,-0.146,0.45,0.596,-0.151,-0.371,0.522,0.504,0.074,0.697,0.274,0.287,0.413,0.107,-0.247,0.147
0.844,-0.156,0.423,0.58,-0.133,-0.368,0.501,0.486,0.066,0.692,0.273,0.288,0.412,0.111,-0.276,0.153
0.845,-0.165,0.409,0.575,-0.121,-0.37,0.491,0.489,0.073,0.699,0.279,0.291,0.413,0.108,-0.275,0.148
0.846,-0.176,0.4,0.576,-0.112,-0.377,0.487,0.486,0.074,0.702,0.279,0.29,0.412,0.111,-0.268,0.151
0.847,-0.179,0.399,0.578,-0.109,-0.379,0.488,0.487,0.084,0.711,0.285,0.295,0.414,0.114,-0.277,0.152
0.848,-0.182,0.413,0.596,-0.116,-0.389,0.504,0.489,0.081,0.71,0.282,0.291,0.409,0.107,-0.273,0.15
0.849,-0.181,0.418,0.6,-0.118,-0.391,0.509,0.478,0.066,0.7,0.275,0.287,0.401,0.104,-0.263,0.151
0.85,-0.157,0.408,0.565,-0.125,-0.361,0.486,0.479,0.076,0.708,0.282,0.296,0.406,0.114,-0.27,0.149
0.851,-0.157,0.394,0.55,-0.118,-0.354,0.472,0.484,0.088,0.711,0.282,0.295,0.406,0.117,-0.277,0.153
0.852,-0.165,0.403,0.567,-0.118,-0.366,0.484,0.486,0.084,0.712,0.28,0.29,0.396,0.11,-0.261,0.152
0.853,-0.171,0.431,0.602,-0.13,-0.387,0.516,0.482,0.075,0.705,0.273,0.286,0.389,0.102,-0.253,0.153
0.854,-0.177,0.434,0.611,-0.128,-0.394,0.522,0.478,0.069,0.696,0.264,0.281,0.385,0.1,-0.258,0.155
0.855,-0.186,0.396,0.583,-0.104,-0.385,0.489,0.486,0.07,0.694,0.263,0.278,0.388,0.096,-0.27,0.155
0.856,-0.171,0.401,0.571,-0.115,-0.371,0.485,0.47,0.057,0.684,0.256,0.268,0.387,0.092,-0.267,0.158
0.857,-0.141,0.448,0.589,-0.153,-0.365,0.518,0.457,0.043,0.675,0.247,0.26,0.385,0.096,-0.243,0.161
0.858,-0.152,0.442,0.595,-0.144,-0.373,0.518,0.473,0.056,0.68,0.255,0.263,0.389,0.093,-0.24,0.159
0.859,-0.155,0.414,0.569,-0.129,-0.362,0.491,0.485,0.07,0.696,0.267,0.271,0.396,0.095,-0.266,0.159
0.86,-0.149,0.41,0.559,-0.13,-0.354,0.484,0.489,0.08,0.707,0.276,0.279,0.401,0.099,-0.276,0.155
0.861,-0.161,0.438,0.599,-0.138,-0.38,0.518,0.48,0.075,0.705,0.277,0.277,0.392,0.095,-0.243,0.147
0.862,-0.174,0.455,0.629,-0.14,-0.402,0.542,0.487,0.077,0.704,0.274,0.265,0.382,0.085,-0.235,0.145
0.863,-0.176,0.443,0.62,-0.133,-0.399,0.531,0.495,0.081,0.703,0.276,0.26,0.385,0.079,-0.256,0.15
0.864,-0.16,0.457,0.617,-0.148,-0.389,0.537,0.5,0.086,0.708,0.282,0.261,0.396,0.083,-0.259,0.145
0.865,-0.153,0.433,0.587,-0.14,-0.37,0.51,0.499,0.083,0.704,0.279,0.254,0.395,0.083,-0.275,0.147
0.866,-0.174,0.412,0.586,-0.118,-0.381,0.499,0.489,0.067,0.69,0.268,0.242,0.384,0.075,-0.281,0.153
0.867,-0.168,0.455,0.623,-0.143,-0.396,0.538,0.476,0.051,0.673,0.247,0.224,0.368,0.069,-0.255,0.154
0.868,-0.137,0.468,0.605,-0.165,-0.371,0.535,0.463,0.042,0.666,0.24,0.22,0.369,0.073,-0.248,0.16
0.869,-0.145,0.444,0.59,-0.149,-0.368,0.516,0.467,0.051,0.674,0.248,0.229,0.375,0.076,-0.265,0.155
0.87,-0.155,0.417,0.573,-0.131,-0.364,0.494,0.466,0.057,0.679,0.254,0.233,0.373,0.073,-0.273,0.155
0.871,-0.154,0.413,0.569,-0.129,-0.361,0.491,0.481,0.066,0.688,0.26,0.234,0.377,0.074,-0.27,0.152
0.872,-0.17,0.421,0.592,-0.126,-0.381,0.506,0.487,0.084,0.706,0.273,0.245,0.385,0.075,-0.266,0.15
0.873,-0.164,0.428,0.592,-0.132,-0.378,0.509,0.482,0.086,0.705,0.267,0.244,0.389,0.074,-0.261,0.152
0.874,-0.181,0.413,0.594,-0.116,-0.388,0.503,0.471,0.066,0.688,0.246,0.226,0.377,0.07,-0.263,0.157
0.875,-0.198,0.393,0.591,-0.097,-0.395,0.491,0.471,0.067,0.687,0.243,0.222,0.374,0.067,-0.269,0.158
0.876,-0.198,0.402,0.6,-0.102,-0.399,0.5,0.48,0.068,0.681,0.24,0.22,0.375,0.069,-0.265,0.155
0.877,-0.182,0.422,0.605,-0.119,-0.394,0.513,0.475,0.06,0.68,0.243,0.227,0.381,0.083,-0.259,0.161
0.878,-0.158,0.441,0.598,-0.141,-0.378,0.519,0.481,0.068,0.693,0.259,0.242,0.392,0.095,-0.253,0.164
0.879,-0.158,0.431,0.59,-0.137,-0.374,0.51,0.494,0.071,0.697,0.265,0.252,0.4,0.098,-0.26,0.166
0.88,-0.172,0.413,0.586,-0.12,-0.379,0.499,0.489,0.067,0.694,0.263,0.253,0.398,0.098,-0.269,0.167
0.881,-0.179,0.412,0.592,-0.116,-0.386,0.502,0.489,0.072,0.698,0.269,0.257,0.394,0.096,-0.266,0.16
0.882,-0.149,0.446,0.596,-0.148,-0.373,0.52,0.498,0.079,0.692,0.267,0.257,0.389,0.094,-0.266,0.162
0.883,-0.143,0.475,0.619,-0.166,-0.381,0.546,0.487,0.067,0.686,0.264,0.252,0.379,0.086,-0.256,0.162
0.884,-0.128,0.474,0.603,-0.172,-0.365,0.538,0.496,0.07,0.692,0.271,0.258,0.389,0.087,-0.267,0.162
0.885,-0.112,0.463,0.574,-0.175,-0.343,0.518,0.515,0.084,0.699,0.277,0.266,0.399,0.084,-0.276,0.158
0.886,-0.123,0.449,0.571,-0.163,-0.347,0.509,0.508,0.079,0.694,0.275,0.266,0.399,0.084,-0.27,0.158
0.887,-0.144,0.433,0.578,-0.143,-0.361,0.505,0.492,0.065,0.68,0.265,0.261,0.398,0.086,-0.278,0.163
0.888,-0.176,0.409,0.586,-0.116,-0.381,0.497,0.485,0.059,0.678,0.261,0.258,0.394,0.078,-0.278,0.158
0.889,-0.182,0.415,0.599,-0.116,-0.391,0.507,0.464,0.051,0.665,0.243,0.243,0.385,0.081,-0.26,0.162
0.89,-0.19,0.417,0.607,-0.114,-0.399,0.512,0.442,0.03,0.644,0.224,0.23,0.378,0.088,-0.249,0.17
0.891,-0.199,0.407,0.606,-0.104,-0.402,0.506,0.449,0.024,0.637,0.214,0.222,0.37,0.089,-0.246,0.169
0.892,-0.187,0.421,0.608,-0.117,-0.398,0.514,0.447,0.025,0.643,0.22,0.231,0.375,0.087,-0.24,0.171
0.893,-0.169,0.424,0.593,-0.128,-0.381,0.508,0.439,0.034,0.654,0.233,0.245,0.389,0.091,-0.245,0.175
0.894,-0.179,0.417,0.597,-0.118,-0.389,0.506,0.45,0.041,0.662,0.236,0.249,0.392,0.088,-0.244,0.172
0.895,-0.187,0.415,0.603,-0.114,-0.395,0.509,0.456,0.041,0.666,0.24,0.25,0.388,0.087,-0.251,0.168
0.896,-0.193,0.415,0.608,-0.111,-0.401,0.511,0.466,0.053,0.673,0.247,0.253,0.387,0.089,-0.256,0.163
0.897,-0.178,0.418,0.597,-0.119,-0.388,0.507,0.471,0.056,0.674,0.248,0.251,0.382,0.087,-0.254,0.158
0.898,-0.158,0.417,0.575,-0.129,-0.366,0.496,0.467,0.06,0.678,0.253,0.251,0.378,0.092,-0.266,0.159
0.899,-0.171,0.427,0.598,-0.128,-0.385,0.512,0.467,0.062,0.681,0.257,0.255,0.382,0.096,-0.249,0.16
0.9,-0.167,0.443,0.609,-0.137,-0.388,0.525,0.477,0.066,0.683,0.259,0.257,0.387,0.097,-0.248,0.16
0.901,-0.159,0.432,0.592,-0.137,-0.376,0.511,0.494,0.086,0.691,0.265,0.265,0.401,0.096,-0.26,0.159
0.902,-0.151,0.423,0.574,-0.136,-0.363,0.498,0.484,0.075,0.686,0.263,0.265,0.406,0.096,-0.262,0.157
0.903,-0.143,0.427,0.571,-0.141,-0.357,0.498,0.467,0.06,0.673,0.258,0.263,0.406,0.103,-0.279,0.16
0.904,-0.161,0.435,0.597,-0.137,-0.379,0.515,0.459,0.056,0.665,0.252,0.257,0.403,0.106,-0.265,0.163
0.905,-0.175,0.433,0.609,-0.129,-0.392,0.52,0.459,0.045,0.652,0.237,0.242,0.395,0.105,-0.26,0.161
0.906,-0.17,0.43,0.6,-0.13,-0.386,0.514,0.47,0.042,0.65,0.234,0.24,0.391,0.101,-0.261,0.158
0.907,-0.162,0.445,0.607,-0.141,-0.385,0.525,0.477,0.061,0.666,0.246,0.247,0.395,0.103,-0.254,0.153
0.908,-0.142,0.452,0.594,-0.154,-0.368,0.523,0.485,0.078,0.682,0.26,0.26,0.408,0.11,-0.25,0.152
0.909,-0.127,0.445,0.572,-0.159,-0.349,0.508,0.488,0.074,0.686,0.269,0.272,0.415,0.106,-0.249,0.151
0.91,-0.134,0.458,0.592,-0.162,-0.363,0.525,0.48,0.072,0.683,0.263,0.267,0.406,0.1,-0.242,0.148
0.911,-0.149,0.464,0.613,-0.157,-0.381,0.538,0.48,0.079,0.686,0.259,0.261,0.396,0.088,-0.222,0.141
0.912,-0.138,0.467,0.605,-0.164,-0.371,0.536,0.487,0.081,0.685,0.256,0.262,0.4,0.086,-0.228,0.142
0.913,-0.114,0.492,0.606,-0.189,-0.36,0.548,0.485,0.073,0.681,0.252,0.264,0.402,0.09,-0.224,0.148
0.914,-0.116,0.514,0.63,-0.199,-0.373,0.573,0.474,0.069,0.685,0.253,0.266,0.399,0.092,-0.198,0.149
0.915,-0.121,0.513,0.635,-0.196,-0.379,0.574,0.474,0.073,0.687,0.253,0.267,0.404,0.095,-0.201,0.15
0.916,-0.117,0.498,0.615,-0.19,-0.366,0.556,0.475,0.086,0.694,0.261,0.274,0.406,0.093,-0.22,0.151
0.917,-0.124,0.49,0.615,-0.183,-0.369,0.552,0.477,0.082,0.694,0.264,0.277,0.402,0.086,-0.222,0.148
0.918,-0.128,0.483,0.611,-0.177,-0.369,0.546,0.474,0.075,0.694,0.266,0.278,0.399,0.085,-0.225,0.15
0.919,-0.108,0.485,0.594,-0.189,-0.351,0.539,0.482,0.089,0.707,0.28,0.29,0.408,0.094,-0.218,0.15
0.92,-0.112,0.5,0.611,-0.194,-0.361,0.555,0.486,0.084,0.707,0.28,0.29,0.41,0.092,-0.195,0.144
0.921,-0.134,0.496,0.631,-0.18,-0.383,0.564,0.476,0.076,0.696,0.27,0.277,0.396,0.088,-0.189,0.143
0.922,-0.136,0.49,0.625,-0.176,-0.381,0.557,0.487,0.088,0.704,0.275,0.28,0.398,0.09,-0.193,0.138
0.923,-0.118,0.501,0.619,-0.191,-0.369,0.56,0.495,0.09,0.711,0.28,0.283,0.4,0.098,-0.199,0.128
0.924,-0.109,0.497,0.607,-0.194,-0.358,0.551,0.505,0.099,0.715,0.285,0.285,0.399,0.106,-0.211,0.128
0.925,-0.115,0.49,0.605,-0.188,-0.36,0.547,0.504,0.102,0.72,0.29,0.288,0.401,0.108,-0.203,0.128
0.926,-0.116,0.495,0.612,-0.19,-0.364,0.553,0.508,0.101,0.715,0.284,0.287,0.399,0.11,-0.187,0.124
0.927,-0.099,0.52,0.619,-0.21,-0.359,0.57,0.509,0.095,0.711,0.279,0.287,0.403,0.122,-0.188,0.129
0.928,-0.093,0.521,0.615,-0.213,-0.354,0.568,0.495,0.091,0.713,0.279,0.285,0.401,0.122,-0.189,0.128
0.929,-0.11,0.515,0.625,-0.202,-0.367,0.57,0.517,0.118,0.736,0.3,0.309,0.413,0.117,-0.192,0.117
0.93,-0.12,0.506,0.625,-0.193,-0.373,0.566,0.52,0.113,0.737,0.304,0.321,0.421,0.117,-0.205,0.117
0.931,-0.115,0.499,0.615,-0.192,-0.365,0.556,0.515,0.099,0.716,0.28,0.293,0.404,0.107,-0.199,0.122
0.932,-0.109,0.5,0.609,-0.195,-0.359,0.554,0.518,0.1,0.713,0.274,0.289,0.4,0.101,-0.19,0.126
0.933,-0.133,0.485,0.618,-0.175,-0.376,0.551,0.502,0.093,0.708,0.266,0.283,0.397,0.096,-0.196,0.13
0.934,-0.14,0.513,0.653,-0.186,-0.397,0.583,0.496,0.086,0.698,0.253,0.271,0.382,0.095,-0.177,0.131
0.935,-0.12,0.531,0.651,-0.205,-0.386,0.591,0.479,0.072,0.68,0.24,0.264,0.378,0.106,-0.174,0.142
0.936,-0.105,0.526,0.631,-0.21,-0.368,0.579,0.489,0.079,0.685,0.245,0.266,0.383,0.11,-0.189,0.147
0.937,-0.091,0.524,0.616,-0.216,-0.353,0.57,0.498,0.082,0.694,0.257,0.275,0.394,0.114,-0.19,0.149
0.938,-0.096,0.507,0.603,-0.205,-0.35,0.555,0.495,0.089,0.707,0.268,0.283,0.406,0.12,-0.188,0.158
0.939,-0.096,0.521,0.618,-0.212,-0.357,0.57,0.502,0.106,0.723,0.282,0.291,0.41,0.117,-0.176,0.155
0.94,-0.09,0.557,0.647,-0.233,-0.368,0.602,0.502,0.108,0.726,0.287,0.296,0.413,0.124,-0.152,0.158
0.941,-0.095,0.573,0.667,-0.238,-0.381,0.62,0.502,0.114,0.742,0.301,0.31,0.427,0.131,-0.123,0.153
0.942,-0.079,0.579,0.657,-0.249,-0.368,0.618,0.492,0.115,0.746,0.307,0.318,0.433,0.131,-0.133,0.154
0.943,-0.076,0.551,0.627,-0.237,-0.351,0.589,0.506,0.127,0.757,0.323,0.332,0.446,0.132,-0.142,0.152
0.944,-0.082,0.542,0.624,-0.23,-0.353,0.583,0.495,0.118,0.751,0.321,0.333,0.453,0.136,-0.146,0.154
0.945,-0.073,0.547,0.621,-0.236,-0.347,0.584,0.469,0.098,0.73,0.298,0.31,0.436,0.141,-0.16,0.168
0.946,-0.076,0.555,0.631,-0.239,-0.354,0.593,0.469,0.101,0.731,0.294,0.308,0.43,0.141,-0.139,0.166
0.947,-0.065,0.577,0.642,-0.256,-0.353,0.609,0.474,0.116,0.741,0.301,0.319,0.444,0.15,-0.133,0.167
0.948,-0.068,0.578,0.646,-0.255,-0.357,0.612,0.486,0.117,0.744,0.301,0.322,0.445,0.149,-0.131,0.165
0.949,-0.084,0.592,0.676,-0.254,-0.38,0.633,0.475,0.101,0.726,0.288,0.311,0.434,0.148,-0.119,0.171
0.95,-0.076,0.596,0.672,-0.259,-0.374,0.633,0.464,0.086,0.713,0.28,0.308,0.434,0.151,-0.133,0.174
0.951,-0.069,0.577,0.646,-0.254,-0.358,0.612,0.468,0.074,0.706,0.274,0.304,0.431,0.141,-0.136,0.172
0.952,-0.053,0.592,0.644,-0.269,-0.349,0.618,0.464,0.066,0.695,0.268,0.301,0.435,0.141,-0.125,0.178
0.953,-0.031,0.625,0.655,-0.296,-0.344,0.64,0.451,0.053,0.689,0.26,0.299,0.434,0.141,-0.113,0.179
0.954,-0.04,0.614,0.654,-0.286,-0.347,0.633,0.439,0.058,0.695,0.264,0.302,0.434,0.135,-0.107,0.183
0.955,-0.055,0.592,0.646,-0.268,-0.351,0.619,0.449,0.071,0.709,0.279,0.315,0.445,0.135,-0.106,0.184
0.956,-0.062,0.571,0.633,-0.254,-0.348,0.602,0.454,0.065,0.705,0.278,0.315,0.442,0.135,-0.113,0.187
0.957,-0.078,0.573,0.65,-0.246,-0.364,0.612,0.447,0.056,0.696,0.27,0.306,0.428,0.134,-0.106,0.188
0.958,-0.082,0.571,0.652,-0.244,-0.367,0.611,0.449,0.051,0.696,0.266,0.298,0.419,0.132,-0.112,0.181
0.959,-0.086,0.536,0.623,-0.225,-0.355,0.58,0.454,0.067,0.704,0.276,0.303,0.427,0.135,-0.143,0.178
0.96,-0.102,0.512,0.615,-0.204,-0.359,0.563,0.46,0.075,0.709,0.28,0.309,0.431,0.136,-0.15,0.169
0.961,-0.105,0.507,0.612,-0.201,-0.359,0.559,0.459,0.067,0.701,0.275,0.304,0.428,0.132,-0.159,0.173
0.962,-0.074,0.521,0.595,-0.223,-0.335,0.557,0.466,0.077,0.707,0.281,0.309,0.435,0.133,-0.181,0.178
0.963,-0.048,0.509,0.557,-0.23,-0.302,0.533,0.481,0.088,0.715,0.287,0.312,0.436,0.128,-0.216,0.176
0.964,-0.037,0.501,0.538,-0.232,-0.287,0.519,0.483,0.093,0.715,0.289,0.311,0.438,0.125,-0.23,0.18
0.965,-0.048,0.506,0.554,-0.229,-0.301,0.53,0.461,0.076,0.701,0.276,0.301,0.43,0.126,-0.211,0.183
0.966,-0.062,0.476,0.538,-0.206,-0.3,0.507,0.438,0.053,0.679,0.257,0.283,0.42,0.129,-0.237,0.183
0.967,-0.075,0.452,0.527,-0.188,-0.301,0.489,0.431,0.045,0.67,0.249,0.28,0.425,0.132,-0.252,0.184
0.968,-0.093,0.456,0.549,-0.181,-0.322,0.502,0.427,0.034,0.657,0.236,0.268,0.418,0.13,-0.229,0.186
0.969,-0.088,0.46,0.548,-0.185,-0.319,0.503,0.418,0.022,0.637,0.211,0.247,0.405,0.131,-0.232,0.195
0.97,-0.123,0.441,0.564,-0.158,-0.344,0.501,0.398,0.001,0.613,0.184,0.221,0.387,0.118,-0.237,0.205
0.971,-0.125,0.424,0.55,-0.149,-0.338,0.487,0.399,-0.004,0.605,0.175,0.211,0.383,0.113,-0.251,0.213
0.972,-0.102,0.433,0.535,-0.165,-0.319,0.483,0.404,0.002,0.613,0.181,0.218,0.388,0.12,-0.262,0.216
0.973,-0.109,0.431,0.54,-0.161,-0.325,0.485,0.407,0.007,0.614,0.179,0.216,0.384,0.12,-0.255,0.214
0.974,-0.083,0.451,0.534,-0.183,-0.308,0.492,0.418,0.021,0.623,0.186,0.223,0.393,0.125,-0.241,0.214
0.975,-0.087,0.465,0.552,-0.188,-0.32,0.508,0.406,0.013,0.624,0.188,0.222,0.395,0.129,-0.239,0.217
0.976,-0.109,0.456,0.565,-0.172,-0.337,0.51,0.404,0.005,0.619,0.184,0.212,0.389,0.124,-0.234,0.218
0.977,-0.117,0.46,0.578,-0.171,-0.348,0.518,0.405,0.009,0.626,0.194,0.211,0.393,0.121,-0.227,0.215
0.978,-0.115,0.465,0.579,-0.174,-0.347,0.521,0.399,0.002,0.621,0.19,0.201,0.389,0.124,-0.228,0.22
0.979,-0.096,0.474,0.57,-0.189,-0.333,0.522,0.391,-0.016,0.607,0.18,0.194,0.383,0.128,-0.228,0.225
0.98,-0.1,0.465,0.565,-0.182,-0.332,0.514,0.392,-0.008,0.614,0.19,0.2,0.385,0.125,-0.235,0.221
0.981,-0.11,0.447,0.556,-0.168,-0.333,0.501,0.422,0.02,0.635,0.208,0.21,0.391,0.121,-0.241,0.21
0.982,-0.101,0.451,0.551,-0.174,-0.326,0.5,0.439,0.034,0.651,0.226,0.224,0.394,0.117,-0.243,0.194
0.983,-0.1,0.442,0.541,-0.17,-0.321,0.491,0.445,0.044,0.662,0.24,0.237,0.398,0.113,-0.242,0.181
0.984,-0.127,0.421,0.547,-0.146,-0.338,0.484,0.448,0.051,0.665,0.245,0.24,0.397,0.106,-0.257,0.177
0.985,-0.146,0.406,0.552,-0.13,-0.349,0.478,0.453,0.059,0.67,0.248,0.24,0.392,0.097,-0.263,0.166
0.986,-0.158,0.406,0.564,-0.123,-0.361,0.485,0.459,0.064,0.673,0.246,0.239,0.39,0.085,-0.26,0.153
0.987,-0.158,0.429,0.588,-0.136,-0.373,0.508,0.446,0.057,0.667,0.239,0.23,0.383,0.083,-0.258,0.156
0.988,-0.148,0.434,0.582,-0.142,-0.365,0.507,0.447,0.062,0.67,0.243,0.234,0.39,0.085,-0.255,0.158
0.989,-0.15,0.422,0.573,-0.136,-0.361,0.497,0.456,0.065,0.671,0.242,0.236,0.396,0.083,-0.261,0.157
0.99,-0.154,0.428,0.583,-0.137,-0.369,0.505,0.453,0.058,0.661,0.234,0.227,0.391,0.083,-0.251,0.158
0.991,-0.167,0.441,0.607,-0.137,-0.387,0.523,0.459,0.06,0.659,0.228,0.223,0.391,0.079,-0.238,0.159
0.992,-0.172,0.429,0.601,-0.129,-0.387,0.515,0.448,0.035,0.638,0.209,0.211,0.377,0.072,-0.255,0.167
0.993,-0.166,0.423,0.589,-0.129,-0.377,0.505,0.432,0.014,0.618,0.189,0.194,0.363,0.062,-0.264,0.173
0.994,-0.169,0.408,0.577,-0.119,-0.373,0.492,0.438,0.011,0.619,0.188,0.194,0.357,0.051,-0.275,0.172
0.995,-0.162,0.403,0.565,-0.119,-0.363,0.483,0.441,0.017,0.625,0.194,0.198,0.354,0.048,-0.288,0.171
0.996,-0.175,0.424,0.6,-0.124,-0.388,0.512,0.441,0.016,0.623,0.191,0.193,0.348,0.044,-0.267,0.167
0.997,-0.192,0.401,0.593,-0.104,-0.392,0.496,0.439,0.007,0.613,0.184,0.189,0.344,0.043,-0.281,0.17
0.998,-0.168,0.386,0.553,-0.108,-0.361,0.469,0.443,0.01,0.62,0.193,0.201,0.362,0.057,-0.298,0.175
0.999,-0.172,0.403,0.574,-0.115,-0.373,0.488,0.436,-0.002,0.613,0.186,0.198,0.367,0.063,-0.282,0.179
1,-0.21,0.401,0.611,-0.095,-0.41,0.505,0.421,-0.006,0.593,0.167,0.182,0.358,0.061,-0.281,0.188
1.001,-0.234,0.391,0.625,-0.078,-0.429,0.507,0.414,-0.001,0.594,0.165,0.178,0.352,0.056,-0.274,0.188
1.002,-0.228,0.382,0.61,-0.076,-0.419,0.495,0.413,-0.002,0.594,0.165,0.177,0.354,0.052,-0.28,0.188
1.003,-0.203,0.391,0.594,-0.093,-0.399,0.492,0.419,0.006,0.6,0.171,0.182,0.36,0.058,-0.296,0.186
1.004,-0.19,0.413,0.604,-0.112,-0.397,0.508,0.418,0.015,0.611,0.185,0.191,0.365,0.067,-0.282,0.184
1.005,-0.193,0.418,0.611,-0.113,-0.402,0.514,0.421,0.015,0.608,0.181,0.18,0.359,0.066,-0.269,0.189
1.006,-0.192,0.408,0.6,-0.108,-0.396,0.504,0.423,0.015,0.608,0.177,0.176,0.355,0.067,-0.284,0.194
1.007,-0.21,0.384,0.594,-0.086,-0.403,0.488,0.427,0.024,0.618,0.188,0.189,0.365,0.07,-0.297,0.19
1.008,-0.198,0.374,0.572,-0.088,-0.385,0.472,0.429,0.029,0.627,0.198,0.202,0.371,0.076,-0.296,0.188
1.009,-0.176,0.393,0.57,-0.107,-0.373,0.481,0.435,0.021,0.625,0.197,0.205,0.371,0.079,-0.285,0.192
1.01,-0.183,0.403,0.587,-0.109,-0.386,0.495,0.448,0.024,0.626,0.2,0.21,0.366,0.069,-0.278,0.187
1.011,-0.192,0.377,0.569,-0.092,-0.38,0.472,0.454,0.037,0.634,0.208,0.221,0.371,0.066,-0.288,0.188
1.012,-0.193,0.351,0.544,-0.079,-0.368,0.447,0.461,0.038,0.63,0.202,0.22,0.367,0.059,-0.299,0.188
1.013,-0.175,0.384,0.559,-0.104,-0.368,0.472,0.439,0.022,0.615,0.186,0.209,0.354,0.057,-0.287,0.181
1.014,-0.185,0.41,0.596,-0.112,-0.391,0.503,0.427,0.004,0.599,0.17,0.197,0.35,0.058,-0.273,0.183
1.015,-0.189,0.413,0.602,-0.112,-0.396,0.507,0.44,0.008,0.602,0.169,0.191,0.344,0.051,-0.271,0.177
1.016,-0.189,0.422,0.611,-0.116,-0.4,0.516,0.426,0.013,0.602,0.17,0.191,0.343,0.051,-0.27,0.173
1.017,-0.208,0.398,0.607,-0.094,-0.407,0.502,0.413,0.006,0.595,0.168,0.19,0.34,0.045,-0.284,0.175
1.018,-0.204,0.378,0.582,-0.086,-0.393,0.479,0.419,0.004,0.597,0.169,0.19,0.339,0.048,-0.297,0.171
1.019,-0.195,0.367,0.562,-0.086,-0.379,0.464,0.432,0.011,0.602,0.172,0.195,0.346,0.046,-0.305,0.17
1.02,-0.209,0.361,0.57,-0.075,-0.39,0.466,0.441,0.021,0.613,0.181,0.201,0.349,0.038,-0.307,0.163
1.021,-0.228,0.357,0.585,-0.064,-0.407,0.471,0.444,0.028,0.615,0.184,0.202,0.351,0.035,-0.296,0.161
1.022,-0.226,0.351,0.577,-0.062,-0.402,0.464,0.454,0.038,0.622,0.192,0.21,0.364,0.039,-0.304,0.162
1.023,-0.218,0.343,0.561,-0.062,-0.39,0.452,0.453,0.034,0.624,0.197,0.216,0.372,0.044,-0.322,0.165
1.024,-0.224,0.326,0.549,-0.051,-0.387,0.438,0.452,0.032,0.621,0.194,0.215,0.374,0.043,-0.329,0.164
1.025,-0.221,0.324,0.544,-0.051,-0.383,0.434,0.45,0.021,0.612,0.186,0.211,0.37,0.049,-0.33,0.169
1.026,-0.222,0.333,0.554,-0.055,-0.388,0.443,0.443,0.002,0.595,0.171,0.203,0.357,0.048,-0.32,0.176
1.027,-0.225,0.357,0.582,-0.066,-0.404,0.469,0.449,0.009,0.589,0.16,0.19,0.344,0.033,-0.314,0.172
1.028,-0.218,0.366,0.585,-0.073,-0.402,0.475,0.445,0.013,0.59,0.16,0.188,0.342,0.03,-0.316,0.173
1.029,-0.229,0.356,0.586,-0.064,-0.407,0.47,0.452,0.024,0.601,0.171,0.2,0.356,0.038,-0.308,0.175
1.03,-0.198,0.363,0.56,-0.083,-0.379,0.462,0.444,0.013,0.596,0.167,0.196,0.359,0.042,-0.314,0.183
1.031,-0.191,0.38,0.571,-0.094,-0.381,0.475,0.442,0.006,0.589,0.158,0.189,0.347,0.036,-0.297,0.181
1.032,-0.222,0.382,0.604,-0.08,-0.412,0.492,0.448,0.01,0.588,0.154,0.181,0.336,0.029,-0.285,0.174
1.033,-0.209,0.371,0.581,-0.081,-0.396,0.476,0.441,0.011,0.59,0.152,0.179,0.334,0.035,-0.298,0.172
1.034,-0.217,0.397,0.614,-0.089,-0.416,0.505,0.45,0.015,0.596,0.155,0.178,0.334,0.035,-0.276,0.168
1.035,-0.203,0.42,0.623,-0.108,-0.413,0.521,0.443,0.009,0.594,0.154,0.176,0.33,0.042,-0.271,0.173
1.036,-0.193,0.422,0.616,-0.115,-0.405,0.518,0.435,0.002,0.588,0.15,0.174,0.322,0.046,-0.265,0.168
1.037,-0.203,0.411,0.614,-0.103,-0.408,0.512,0.446,0.013,0.598,0.16,0.181,0.331,0.05,-0.275,0.17
1.038,-0.206,0.386,0.593,-0.089,-0.4,0.489,0.457,0.025,0.61,0.173,0.195,0.343,0.066,-0.289,0.175
1.039,-0.221,0.392,0.613,-0.085,-0.417,0.502,0.459,0.021,0.609,0.174,0.197,0.342,0.072,-0.283,0.176
1.04,-0.204,0.397,0.601,-0.096,-0.403,0.498,0.457,0.025,0.611,0.178,0.202,0.344,0.072,-0.292,0.177
1.041,-0.185,0.407,0.593,-0.111,-0.389,0.499,0.466,0.032,0.62,0.191,0.215,0.352,0.067,-0.282,0.172
1.042,-0.174,0.421,0.596,-0.123,-0.385,0.508,0.474,0.049,0.634,0.209,0.234,0.367,0.068,-0.289,0.168
1.043,-0.164,0.424,0.588,-0.13,-0.376,0.505,0.469,0.046,0.632,0.212,0.236,0.371,0.064,-0.297,0.161
1.044,-0.152,0.424,0.576,-0.136,-0.364,0.5,0.463,0.032,0.625,0.211,0.234,0.373,0.059,-0.303,0.154
1.045,-0.158,0.409,0.567,-0.126,-0.362,0.488,0.455,0.044,0.636,0.223,0.245,0.38,0.062,-0.311,0.153
1.046,-0.184,0.383,0.567,-0.099,-0.376,0.474,0.454,0.034,0.629,0.213,0.24,0.376,0.054,-0.307,0.155
1.047,-0.184,0.376,0.559,-0.095,-0.372,0.468,0.456,0.021,0.615,0.196,0.229,0.37,0.055,-0.3,0.16
1.048,-0.18,0.389,0.569,-0.104,-0.375,0.479,0.435,0.014,0.603,0.185,0.219,0.359,0.058,-0.294,0.166
1.049,-0.193,0.39,0.583,-0.098,-0.388,0.485,0.428,0.015,0.603,0.185,0.217,0.349,0.052,-0.285,0.16
1.05,-0.223,0.35,0.574,-0.063,-0.399,0.462,0.44,0.022,0.613,0.192,0.22,0.353,0.051,-0.301,0.16
1.051,-0.249,0.314,0.563,-0.032,-0.406,0.438,0.428,0.006,0.595,0.178,0.21,0.349,0.05,-0.313,0.166
1.052,-0.249,0.319,0.568,-0.035,-0.408,0.444,0.411,-0.006,0.582,0.164,0.2,0.344,0.045,-0.294,0.164
1.053,-0.266,0.315,0.581,-0.025,-0.423,0.448,0.41,-0.014,0.577,0.157,0.194,0.342,0.043,-0.299,0.168
1.054,-0.24,0.325,0.566,-0.042,-0.403,0.445,0.419,-0.004,0.585,0.162,0.194,0.341,0.046,-0.309,0.172
1.055,-0.194,0.359,0.552,-0.083,-0.373,0.456,0.426,0.002,0.594,0.166,0.195,0.345,0.049,-0.305,0.175
1.056,-0.224,0.383,0.607,-0.079,-0.416,0.495,0.441,0.011,0.598,0.165,0.187,0.337,0.041,-0.275,0.161
1.057,-0.249,0.383,0.632,-0.066,-0.441,0.507,0.453,0.02,0.599,0.159,0.173,0.325,0.032,-0.259,0.144
1.058,-0.248,0.396,0.644,-0.073,-0.447,0.52,0.473,0.034,0.612,0.166,0.177,0.326,0.032,-0.262,0.13
1.059,-0.278,0.419,0.697,-0.07,-0.488,0.558,0.507,0.073,0.643,0.185,0.182,0.327,0.018,-0.254,0.103
1.06,-0.306,0.425,0.732,-0.059,-0.519,0.578,0.529,0.096,0.652,0.179,0.164,0.303,-0.004,-0.251,0.08
1.061,-0.312,0.426,0.739,-0.057,-0.526,0.583,0.562,0.142,0.678,0.184,0.145,0.276,-0.022,-0.255,0.048
1.062,-0.318,0.404,0.721,-0.043,-0.519,0.562,0.614,0.205,0.719,0.203,0.139,0.263,-0.042,-0.274,0.009
1.063,-0.31,0.382,0.693,-0.035,-0.502,0.537,0.66,0.261,0.758,0.228,0.145,0.257,-0.046,-0.299,-0.024
1.064,-0.303,0.367,0.671,-0.032,-0.488,0.519,0.684,0.318,0.802,0.261,0.16,0.255,-0.042,-0.315,-0.04
1.065,-0.286,0.35,0.636,-0.032,-0.461,0.493,0.709,0.387,0.865,0.311,0.197,0.27,-0.02,-0.332,-0.053
1.066,-0.259,0.334,0.592,-0.037,-0.425,0.463,0.707,0.444,0.921,0.362,0.235,0.284,0.009,-0.357,-0.067
1.067,-0.238,0.324,0.562,-0.043,-0.401,0.443,0.693,0.483,0.964,0.406,0.273,0.296,0.037,-0.362,-0.075
1.068,-0.203,0.303,0.507,-0.05,-0.355,0.405,0.715,0.562,1.032,0.467,0.324,0.311,0.071,-0.394,-0.095
1.069,-0.177,0.284,0.463,-0.053,-0.321,0.373,0.731,0.652,1.104,0.525,0.361,0.32,0.098,-0.413,-0.12
1.07,-0.167,0.317,0.483,-0.074,-0.326,0.4,0.748,0.734,1.175,0.581,0.399,0.326,0.126,-0.377,-0.152
1.071,-0.133,0.345,0.478,-0.105,-0.306,0.411,0.766,0.821,1.254,0.641,0.437,0.329,0.159,-0.359,-0.186
1.072,-0.087,0.352,0.44,-0.133,-0.264,0.396,0.791,0.888,1.334,0.714,0.492,0.359,0.198,-0.36,-0.213
1.073,-0.039,0.384,0.422,-0.172,-0.231,0.403,0.797,0.933,1.407,0.789,0.56,0.39,0.237,-0.338,-0.242
1.074,-0.013,0.401,0.413,-0.194,-0.213,0.407,0.798,0.973,1.491,0.876,0.628,0.416,0.272,-0.311,-0.277
1.075,0.017,0.43,0.413,-0.224,-0.198,0.421,0.821,1.008,1.569,0.961,0.692,0.447,0.306,-0.297,-0.312
1.076,0.078,0.483,0.405,-0.281,-0.163,0.444,0.819,1.025,1.635,1.04,0.76,0.471,0.351,-0.277,-0.343
1.077,0.127,0.525,0.398,-0.326,-0.136,0.462,0.795,1.028,1.714,1.147,0.855,0.515,0.417,-0.238,-0.364
1.078,0.179,0.561,0.382,-0.37,-0.102,0.471,0.757,0.998,1.769,1.25,0.963,0.57,0.486,-0.211,-0.372
1.079,0.242,0.566,0.323,-0.404,-0.041,0.444,0.691,0.906,1.778,1.325,1.06,0.624,0.551,-0.204,-0.353
1.08,0.316,0.58,0.264,-0.448,0.026,0.421,0.599,0.803,1.774,1.391,1.149,0.666,0.616,-0.193,-0.324
1.081,0.379,0.637,0.258,-0.508,0.06,0.448,0.53,0.724,1.782,1.464,1.247,0.715,0.681,-0.148,-0.305
1.082,0.453,0.697,0.243,-0.574,0.104,0.47,0.445,0.642,1.787,1.54,1.351,0.791,0.753,-0.095,-0.274
1.083,0.554,0.754,0.2,-0.653,0.177,0.477,0.316,0.527,1.768,1.597,1.45,0.867,0.831,-0.051,-0.226
1.084,0.623,0.801,0.178,-0.712,0.222,0.489,0.204,0.404,1.73,1.637,1.534,0.92,0.9,-0.019,-0.175
1.085,0.678,0.827,0.148,-0.751,0.265,0.487,0.113,0.302,1.69,1.659,1.597,0.96,0.95,0.009,-0.128
1.086,0.733,0.876,0.142,-0.803,0.295,0.509,0.008,0.183,1.613,1.639,1.631,0.99,0.99,0.059,-0.065
1.087,0.772,0.922,0.149,-0.847,0.311,0.535,-0.114,0.029,1.502,1.59,1.645,1.022,1.026,0.094,0.013
1.088,0.785,0.958,0.172,-0.871,0.306,0.565,-0.192,-0.117,1.387,1.522,1.635,1.065,1.044,0.133,0.088
1.089,0.795,0.985,0.189,-0.889,0.303,0.587,-0.246,-0.256,1.254,1.427,1.602,1.097,1.047,0.164,0.17
1.09,0.769,0.973,0.203,-0.87,0.282,0.588,-0.315,-0.409,1.106,1.306,1.538,1.088,1.023,0.157,0.248
1.091,0.715,0.952,0.235,-0.833,0.24,0.594,-0.387,-0.565,0.944,1.162,1.44,1.058,0.986,0.149,0.335
1.092,0.68,0.88,0.2,-0.78,0.24,0.539,-0.424,-0.66,0.829,1.042,1.344,1.004,0.923,0.086,0.4
1.093,0.624,0.733,0.108,-0.677,0.258,0.419,-0.417,-0.692,0.733,0.913,1.224,0.915,0.833,-0.038,0.462
1.094,0.592,0.632,0.04,-0.612,0.277,0.336,-0.465,-0.807,0.557,0.724,1.072,0.85,0.751,-0.109,0.561
1.095,0.542,0.617,0.074,-0.579,0.234,0.345,-0.526,-0.974,0.344,0.519,0.925,0.808,0.672,-0.12,0.655
1.096,0.451,0.587,0.136,-0.518,0.158,0.361,-0.553,-1.127,0.141,0.32,0.776,0.769,0.589,-0.146,0.746
1.097,0.397,0.538,0.141,-0.467,0.129,0.339,-0.619,-1.254,-0.019,0.155,0.642,0.729,0.511,-0.194,0.841
1.098,0.333,0.473,0.14,-0.403,0.097,0.306,-0.679,-1.327,-0.155,0.004,0.513,0.677,0.439,-0.246,0.932
1.099,0.197,0.408,0.211,-0.302,-0.007,0.31,-0.694,-1.433,-0.327,-0.197,0.331,0.606,0.319,-0.282,1.012
1.1,0.056,0.36,0.304,-0.208,-0.124,0.333,-0.668,-1.524,-0.493,-0.403,0.145,0.537,0.184,-0.284,1.066
1.101,-0.027,0.315,0.341,-0.143,-0.184,0.328,-0.656,-1.575,-0.626,-0.576,-0.004,0.48,0.095,-0.305,1.111
1.102,-0.076,0.289,0.365,-0.106,-0.221,0.327,-0.644,-1.595,-0.706,-0.693,-0.117,0.433,0.029,-0.332,1.139
1.103,-0.12,0.24,0.36,-0.059,-0.24,0.3,-0.602,-1.593,-0.758,-0.781,-0.204,0.393,-0.03,-0.363,1.155
1.104,-0.163,0.196,0.358,-0.016,-0.261,0.277,-0.565,-1.565,-0.778,-0.833,-0.265,0.357,-0.074,-0.388,1.159
1.105,-0.17,0.195,0.364,-0.012,-0.267,0.28,-0.531,-1.487,-0.729,-0.811,-0.271,0.335,-0.088,-0.391,1.131
1.106,-0.174,0.182,0.357,-0.004,-0.266,0.27,-0.484,-1.403,-0.669,-0.779,-0.275,0.312,-0.095,-0.406,1.094
1.107,-0.185,0.176,0.362,0.005,-0.274,0.269,-0.407,-1.291,-0.584,-0.726,-0.261,0.307,-0.097,-0.389,1.04
1.108,-0.183,0.207,0.39,-0.011,-0.287,0.298,-0.342,-1.186,-0.487,-0.661,-0.236,0.309,-0.096,-0.365,0.978
1.109,-0.199,0.238,0.438,-0.019,-0.319,0.338,-0.273,-1.069,-0.384,-0.584,-0.196,0.326,-0.085,-0.34,0.914
1.11,-0.209,0.253,0.462,-0.021,-0.336,0.356,-0.198,-0.945,-0.272,-0.496,-0.148,0.346,-0.064,-0.315,0.855
1.111,-0.203,0.289,0.493,-0.043,-0.348,0.391,-0.131,-0.837,-0.176,-0.423,-0.11,0.355,-0.053,-0.29,0.8
1.112,-0.18,0.345,0.526,-0.082,-0.353,0.435,-0.082,-0.753,-0.101,-0.369,-0.082,0.354,-0.041,-0.255,0.747
1.113,-0.158,0.41,0.569,-0.126,-0.364,0.489,-0.046,-0.686,-0.031,-0.317,-0.056,0.353,-0.024,-0.221,0.697
1.114,-0.17,0.448,0.617,-0.139,-0.394,0.532,0.016,-0.59,0.054,-0.248,-0.015,0.363,-0.014,-0.178,0.642
1.115,-0.186,0.431,0.617,-0.121,-0.402,0.524,0.066,-0.52,0.119,-0.199,0.007,0.365,-0.017,-0.168,0.6
1.116,-0.176,0.417,0.593,-0.12,-0.385,0.505,0.092,-0.467,0.17,-0.158,0.032,0.37,-0.011,-0.184,0.57
1.117,-0.181,0.407,0.589,-0.113,-0.385,0.497,0.114,-0.424,0.202,-0.131,0.051,0.373,0.003,-0.186,0.542
1.118,-0.203,0.393,0.596,-0.095,-0.4,0.494,0.14,-0.384,0.234,-0.105,0.061,0.368,0.002,-0.18,0.503
1.119,-0.161,0.402,0.562,-0.12,-0.361,0.481,0.169,-0.331,0.281,-0.062,0.091,0.383,0.013,-0.191,0.469
1.12,-0.142,0.425,0.568,-0.141,-0.355,0.496,0.183,-0.298,0.311,-0.035,0.112,0.399,0.023,-0.19,0.444
1.121,-0.182,0.438,0.62,-0.127,-0.402,0.528,0.187,-0.292,0.315,-0.036,0.1,0.387,0.015,-0.185,0.411
1.122,-0.179,0.472,0.652,-0.146,-0.416,0.562,0.197,-0.282,0.326,-0.032,0.088,0.372,0.009,-0.189,0.383
1.123,-0.183,0.493,0.677,-0.154,-0.43,0.585,0.235,-0.244,0.353,-0.011,0.096,0.37,0.004,-0.179,0.353
1.124,-0.181,0.486,0.668,-0.152,-0.425,0.578,0.255,-0.217,0.378,0.005,0.1,0.371,0.008,-0.19,0.342
1.125,-0.183,0.494,0.678,-0.155,-0.431,0.586,0.26,-0.202,0.389,0.011,0.098,0.366,0.011,-0.184,0.33
1.126,-0.198,0.493,0.691,-0.147,-0.445,0.592,0.278,-0.185,0.403,0.015,0.099,0.354,0.015,-0.182,0.312
1.127,-0.186,0.478,0.664,-0.145,-0.425,0.571,0.279,-0.171,0.417,0.022,0.096,0.344,0.024,-0.201,0.3
1.128,-0.192,0.472,0.664,-0.14,-0.428,0.568,0.29,-0.154,0.428,0.03,0.096,0.336,0.022,-0.211,0.277
1.129,-0.209,0.46,0.669,-0.125,-0.439,0.564,0.311,-0.127,0.451,0.046,0.102,0.33,0.015,-0.228,0.254
1.13,-0.218,0.453,0.671,-0.117,-0.445,0.561,0.316,-0.104,0.469,0.061,0.114,0.329,0.015,-0.229,0.244
1.131,-0.205,0.486,0.691,-0.14,-0.448,0.588,0.333,-0.091,0.483,0.074,0.122,0.33,0.015,-0.214,0.237
1.132,-0.186,0.508,0.695,-0.161,-0.441,0.602,0.35,-0.079,0.494,0.082,0.129,0.329,0.012,-0.21,0.23
1.133,-0.196,0.472,0.668,-0.138,-0.432,0.57,0.364,-0.061,0.512,0.098,0.148,0.343,0.013,-0.227,0.224
1.134,-0.196,0.447,0.641,-0.125,-0.419,0.544,0.373,-0.057,0.514,0.1,0.151,0.34,0.015,-0.243,0.22
1.135,-0.187,0.434,0.621,-0.123,-0.405,0.527,0.385,-0.054,0.513,0.098,0.15,0.337,0.026,-0.26,0.215
1.136,-0.196,0.397,0.592,-0.1,-0.394,0.494,0.403,-0.036,0.528,0.11,0.16,0.345,0.032,-0.278,0.204
1.137,-0.225,0.365,0.59,-0.07,-0.407,0.477,0.402,-0.035,0.529,0.111,0.162,0.341,0.027,-0.288,0.2
1.138,-0.244,0.348,0.593,-0.051,-0.418,0.47,0.412,-0.028,0.53,0.109,0.153,0.336,0.015,-0.287,0.195
1.139,-0.236,0.358,0.596,-0.06,-0.416,0.477,0.417,-0.017,0.532,0.107,0.146,0.331,0.009,-0.282,0.191
1.14,-0.237,0.382,0.62,-0.071,-0.429,0.5,0.405,-0.02,0.534,0.11,0.147,0.329,0.013,-0.275,0.187
1.141,-0.224,0.431,0.655,-0.103,-0.44,0.543,0.398,-0.028,0.524,0.101,0.132,0.318,0.019,-0.243,0.183
1.142,-0.221,0.444,0.664,-0.111,-0.443,0.554,0.397,-0.026,0.522,0.101,0.128,0.316,0.022,-0.236,0.183
1.143,-0.229,0.415,0.643,-0.093,-0.436,0.529,0.412,-0.012,0.537,0.116,0.138,0.325,0.021,-0.258,0.179
1.144,-0.216,0.435,0.651,-0.109,-0.433,0.542,0.412,-0.009,0.535,0.114,0.133,0.324,0.023,-0.26,0.183
1.145,-0.217,0.444,0.66,-0.113,-0.439,0.552,0.399,-0.015,0.528,0.107,0.128,0.323,0.019,-0.264,0.184
1.146,-0.214,0.414,0.628,-0.1,-0.421,0.52,0.4,-0.019,0.528,0.106,0.127,0.325,0.015,-0.281,0.181
1.147,-0.225,0.404,0.628,-0.089,-0.426,0.516,0.405,-0.006,0.539,0.115,0.138,0.335,0.017,-0.269,0.177
1.148,-0.231,0.433,0.664,-0.101,-0.448,0.548,0.419,0.007,0.552,0.128,0.152,0.346,0.021,-0.253,0.171
1.149,-0.231,0.426,0.657,-0.097,-0.445,0.541,0.416,0.011,0.556,0.132,0.152,0.345,0.019,-0.27,0.168
1.15,-0.207,0.429,0.636,-0.111,-0.422,0.533,0.411,0.001,0.547,0.127,0.152,0.347,0.024,-0.279,0.169
1.151,-0.179,0.446,0.625,-0.133,-0.403,0.535,0.409,-0.011,0.539,0.121,0.153,0.346,0.028,-0.274,0.175
1.152,-0.199,0.43,0.628,-0.115,-0.414,0.529,0.408,-0.004,0.545,0.127,0.162,0.343,0.028,-0.266,0.166
1.153,-0.196,0.421,0.618,-0.113,-0.407,0.519,0.415,-0.002,0.546,0.123,0.161,0.339,0.032,-0.26,0.163
1.154,-0.206,0.415,0.621,-0.104,-0.413,0.517,0.41,-0.002,0.55,0.126,0.163,0.33,0.03,-0.258,0.167
1.155,-0.21,0.417,0.627,-0.103,-0.419,0.522,0.406,-0.003,0.544,0.118,0.154,0.321,0.026,-0.243,0.163
1.156,-0.193,0.403,0.596,-0.104,-0.395,0.499,0.399,-0.01,0.529,0.102,0.139,0.316,0.026,-0.259,0.168
1.157,-0.217,0.4,0.618,-0.091,-0.418,0.508,0.404,-0.005,0.533,0.108,0.146,0.324,0.026,-0.267,0.165
1.158,-0.226,0.414,0.64,-0.094,-0.433,0.527,0.41,0.004,0.541,0.114,0.148,0.327,0.025,-0.259,0.162
1.159,-0.215,0.407,0.623,-0.096,-0.419,0.515,0.404,0.015,0.556,0.131,0.164,0.34,0.03,-0.283,0.166
1.16,-0.204,0.412,0.617,-0.103,-0.411,0.514,0.418,0.03,0.572,0.146,0.18,0.354,0.038,-0.292,0.168
1.161,-0.202,0.435,0.637,-0.116,-0.42,0.536,0.429,0.03,0.567,0.138,0.169,0.344,0.038,-0.266,0.162
1.162,-0.196,0.431,0.627,-0.117,-0.411,0.529,0.424,0.015,0.556,0.131,0.162,0.345,0.046,-0.257,0.162
1.163,-0.187,0.432,0.619,-0.122,-0.403,0.525,0.419,0.013,0.555,0.134,0.164,0.353,0.056,-0.267,0.167
1.164,-0.207,0.442,0.649,-0.117,-0.428,0.545,0.43,0.025,0.559,0.139,0.163,0.349,0.048,-0.257,0.161
1.165,-0.209,0.409,0.619,-0.1,-0.414,0.514,0.442,0.031,0.563,0.145,0.164,0.348,0.045,-0.272,0.159
1.166,-0.2,0.391,0.591,-0.095,-0.396,0.49,0.435,0.021,0.557,0.141,0.161,0.343,0.042,-0.291,0.164
1.167,-0.22,0.374,0.594,-0.076,-0.407,0.484,0.447,0.033,0.562,0.146,0.167,0.349,0.036,-0.295,0.165
1.168,-0.229,0.359,0.588,-0.065,-0.408,0.473,0.448,0.042,0.566,0.149,0.168,0.352,0.03,-0.299,0.163
1.169,-0.208,0.406,0.615,-0.099,-0.411,0.51,0.44,0.032,0.558,0.142,0.16,0.344,0.024,-0.27,0.16
1.17,-0.209,0.442,0.65,-0.116,-0.43,0.546,0.425,0.024,0.55,0.132,0.15,0.335,0.022,-0.247,0.162
1.171,-0.219,0.431,0.651,-0.106,-0.435,0.541,0.41,0.01,0.542,0.121,0.14,0.328,0.022,-0.249,0.171
1.172,-0.23,0.412,0.641,-0.09,-0.435,0.526,0.425,0.021,0.553,0.132,0.15,0.336,0.025,-0.26,0.167
1.173,-0.23,0.411,0.641,-0.09,-0.436,0.526,0.427,0.03,0.555,0.129,0.147,0.334,0.027,-0.262,0.163
1.174,-0.213,0.441,0.653,-0.114,-0.433,0.547,0.43,0.036,0.561,0.131,0.151,0.334,0.031,-0.246,0.161
1.175,-0.204,0.447,0.651,-0.121,-0.427,0.549,0.426,0.029,0.562,0.137,0.155,0.336,0.032,-0.242,0.167
1.176,-0.186,0.455,0.641,-0.134,-0.413,0.548,0.422,0.018,0.552,0.135,0.156,0.341,0.036,-0.242,0.167
1.177,-0.203,0.467,0.67,-0.132,-0.436,0.568,0.436,0.036,0.562,0.141,0.16,0.342,0.034,-0.234,0.152
1.178,-0.237,0.458,0.695,-0.11,-0.466,0.576,0.421,0.012,0.546,0.122,0.134,0.314,0.018,-0.235,0.155
1.179,-0.233,0.45,0.683,-0.108,-0.458,0.567,0.426,0.011,0.54,0.119,0.131,0.309,0.009,-0.221,0.151
1.18,-0.213,0.455,0.668,-0.12,-0.441,0.561,0.43,0.026,0.551,0.131,0.139,0.31,0.011,-0.236,0.145
1.181,-0.212,0.43,0.643,-0.109,-0.428,0.536,0.428,0.024,0.555,0.136,0.143,0.308,0.014,-0.278,0.141
1.182,-0.216,0.412,0.628,-0.097,-0.423,0.52,0.433,0.029,0.556,0.137,0.144,0.306,0.01,-0.283,0.131
1.183,-0.199,0.431,0.629,-0.116,-0.414,0.53,0.421,0.021,0.546,0.128,0.129,0.299,0.011,-0.289,0.129
1.184,-0.172,0.441,0.612,-0.134,-0.393,0.526,0.438,0.032,0.555,0.14,0.136,0.315,0.021,-0.283,0.126
1.185,-0.172,0.466,0.637,-0.146,-0.405,0.551,0.434,0.034,0.557,0.14,0.137,0.321,0.035,-0.273,0.129
1.186,-0.198,0.449,0.647,-0.125,-0.423,0.548,0.434,0.025,0.556,0.142,0.146,0.334,0.041,-0.28,0.132
1.187,-0.2,0.424,0.623,-0.112,-0.411,0.523,0.443,0.025,0.559,0.147,0.155,0.342,0.035,-0.288,0.135
1.188,-0.204,0.439,0.643,-0.117,-0.424,0.54,0.442,0.028,0.555,0.141,0.149,0.333,0.033,-0.276,0.135
1.189,-0.214,0.421,0.636,-0.103,-0.425,0.528,0.464,0.048,0.572,0.158,0.165,0.344,0.035,-0.277,0.13
1.19,-0.214,0.425,0.639,-0.105,-0.426,0.531,0.469,0.056,0.581,0.163,0.169,0.346,0.042,-0.282,0.132
1.191,-0.213,0.443,0.655,-0.115,-0.434,0.549,0.465,0.046,0.577,0.158,0.165,0.344,0.041,-0.267,0.137
1.192,-0.224,0.408,0.631,-0.091,-0.428,0.519,0.469,0.048,0.579,0.16,0.169,0.349,0.032,-0.27,0.137
1.193,-0.238,0.377,0.614,-0.069,-0.426,0.495,0.464,0.049,0.576,0.156,0.174,0.352,0.034,-0.282,0.137
1.194,-0.233,0.377,0.61,-0.071,-0.422,0.493,0.446,0.032,0.566,0.145,0.166,0.344,0.037,-0.285,0.146
1.195,-0.207,0.409,0.616,-0.101,-0.412,0.512,0.453,0.032,0.562,0.142,0.165,0.346,0.04,-0.272,0.148
1.196,-0.19,0.429,0.619,-0.119,-0.405,0.524,0.456,0.036,0.563,0.145,0.172,0.351,0.04,-0.272,0.146
1.197,-0.199,0.428,0.627,-0.115,-0.413,0.528,0.447,0.029,0.555,0.141,0.172,0.35,0.038,-0.263,0.151
1.198,-0.188,0.468,0.655,-0.14,-0.421,0.561,0.437,0.029,0.553,0.138,0.171,0.345,0.048,-0.235,0.153
1.199,-0.201,0.472,0.673,-0.136,-0.437,0.573,0.43,0.024,0.543,0.128,0.159,0.336,0.04,-0.238,0.157
1.2,-0.222,0.446,0.667,-0.111,-0.445,0.556,0.443,0.029,0.543,0.129,0.161,0.342,0.034,-0.245,0.151
1.201,-0.22,0.445,0.663,-0.112,-0.442,0.553,0.44,0.028,0.542,0.125,0.157,0.342,0.037,-0.246,0.148
1.202,-0.212,0.458,0.669,-0.122,-0.441,0.564,0.433,0.021,0.533,0.118,0.147,0.342,0.029,-0.247,0.149
1.203,-0.196,0.467,0.662,-0.135,-0.429,0.565,0.445,0.034,0.547,0.138,0.163,0.355,0.037,-0.246,0.143
1.204,-0.197,0.445,0.641,-0.123,-0.419,0.543,0.45,0.042,0.554,0.147,0.169,0.359,0.044,-0.261,0.138
1.205,-0.204,0.424,0.629,-0.11,-0.417,0.527,0.452,0.043,0.557,0.151,0.17,0.36,0.045,-0.268,0.138
1.206,-0.199,0.43,0.629,-0.115,-0.414,0.529,0.44,0.028,0.548,0.145,0.168,0.358,0.045,-0.266,0.144
1.207,-0.204,0.43,0.635,-0.113,-0.419,0.532,0.438,0.028,0.55,0.145,0.172,0.361,0.05,-0.272,0.148
1.208,-0.24,0.393,0.633,-0.075,-0.437,0.512,0.457,0.046,0.567,0.162,0.186,0.371,0.05,-0.279,0.145
1.209,-0.246,0.376,0.622,-0.064,-0.434,0.498,0.45,0.033,0.559,0.155,0.182,0.368,0.045,-0.288,0.149
1.21,-0.223,0.394,0.617,-0.086,-0.42,0.505,0.45,0.026,0.551,0.146,0.174,0.356,0.049,-0.288,0.154
1.211,-0.213,0.398,0.611,-0.091,-0.412,0.504,0.458,0.035,0.551,0.148,0.179,0.359,0.05,-0.276,0.152
1.212,-0.205,0.407,0.613,-0.101,-0.409,0.509,0.45,0.04,0.558,0.151,0.186,0.367,0.06,-0.278,0.161
1.213,-0.201,0.418,0.619,-0.108,-0.41,0.518,0.442,0.031,0.55,0.141,0.179,0.363,0.059,-0.271,0.165
1.214,-0.19,0.445,0.634,-0.128,-0.412,0.539,0.445,0.025,0.542,0.129,0.17,0.359,0.056,-0.249,0.164
1.215,-0.197,0.473,0.669,-0.138,-0.433,0.571,0.43,0.026,0.538,0.123,0.163,0.347,0.06,-0.23,0.165
1.216,-0.208,0.498,0.706,-0.144,-0.458,0.602,0.412,0.022,0.543,0.129,0.164,0.336,0.056,-0.206,0.156
1.217,-0.2,0.502,0.702,-0.151,-0.452,0.602,0.429,0.032,0.549,0.132,0.162,0.332,0.043,-0.22,0.149
