'Elapsed time','i','ii','iii','avr','avl','avf','v1','v2','v3','v4','v5','v6','vx','vy','vz'
'hh:mm:ss.mmm','mV','mV','mV','mV','mV','mV','mV','mV','mV','mV','mV','mV','mV','mV','mV'
0,0.182,-0.004,-0.186,-0.089,0.184,-0.095,-0.065,0.085,0.031,-0.067,0.05,-0.103,0.123,-0.329,-0.09
0.001,0.181,-0.003,-0.183,-0.089,0.182,-0.093,-0.068,0.086,0.03,-0.066,0.052,-0.102,0.124,-0.329,-0.09
0.002,0.181,-0.004,-0.186,-0.088,0.184,-0.096,-0.073,0.081,0.029,-0.069,0.051,-0.103,0.123,-0.332,-0.089
0.003,0.179,-0.007,-0.185,-0.086,0.182,-0.097,-0.073,0.081,0.026,-0.068,0.051,-0.105,0.124,-0.334,-0.09
0.004,0.178,-0.003,-0.181,-0.087,0.18,-0.092,-0.073,0.084,0.029,-0.066,0.052,-0.104,0.126,-0.324,-0.09
0.005,0.179,-0.002,-0.182,-0.088,0.181,-0.092,-0.07,0.085,0.031,-0.064,0.053,-0.103,0.126,-0.324,-0.091
0.006,0.179,-0.001,-0.18,-0.089,0.18,-0.09,-0.065,0.088,0.033,-0.062,0.052,-0.103,0.124,-0.323,-0.091
0.007,0.181,-0.001,-0.181,-0.09,0.181,-0.09,-0.066,0.088,0.034,-0.062,0.054,-0.102,0.125,-0.326,-0.091
0.008,0.182,0.001,-0.181,-0.091,0.181,-0.09,-0.067,0.088,0.033,-0.061,0.056,-0.102,0.128,-0.327,-0.091
0.009,0.181,0.004,-0.177,-0.092,0.179,-0.086,-0.068,0.086,0.032,-0.061,0.055,-0.102,0.128,-0.322,-0.093
0.01,0.184,0.004,-0.179,-0.094,0.182,-0.087,-0.069,0.086,0.032,-0.063,0.058,-0.102,0.128,-0.321,-0.092
0.011,0.185,0.005,-0.179,-0.095,0.182,-0.087,-0.066,0.088,0.035,-0.061,0.059,-0.1,0.13,-0.319,-0.093
0.012,0.185,0.007,-0.177,-0.096,0.181,-0.085,-0.064,0.091,0.038,-0.059,0.06,-0.101,0.129,-0.317,-0.096
0.013,0.186,0.009,-0.177,-0.097,0.182,-0.085,-0.062,0.091,0.038,-0.059,0.058,-0.103,0.129,-0.319,-0.097
0.014,0.188,0.011,-0.177,-0.1,0.183,-0.083,-0.06,0.095,0.041,-0.057,0.059,-0.101,0.13,-0.319,-0.098
0.015,0.192,0.018,-0.173,-0.104,0.182,-0.077,-0.066,0.096,0.043,-0.054,0.062,-0.099,0.132,-0.316,-0.1
0.016,0.194,0.025,-0.169,-0.11,0.181,-0.071,-0.061,0.098,0.047,-0.051,0.065,-0.097,0.133,-0.313,-0.102
0.017,0.196,0.03,-0.165,-0.113,0.18,-0.067,-0.058,0.102,0.05,-0.047,0.067,-0.096,0.134,-0.304,-0.103
0.018,0.195,0.03,-0.165,-0.113,0.18,-0.067,-0.059,0.104,0.049,-0.047,0.067,-0.095,0.135,-0.302,-0.102
0.019,0.193,0.028,-0.166,-0.11,0.179,-0.069,-0.061,0.102,0.049,-0.049,0.067,-0.095,0.135,-0.305,-0.102
0.02,0.196,0.029,-0.167,-0.113,0.182,-0.069,-0.066,0.101,0.049,-0.05,0.067,-0.093,0.136,-0.304,-0.101
0.021,0.202,0.035,-0.167,-0.118,0.184,-0.066,-0.069,0.102,0.05,-0.049,0.068,-0.091,0.138,-0.304,-0.101
0.022,0.204,0.039,-0.165,-0.121,0.184,-0.063,-0.071,0.101,0.053,-0.045,0.072,-0.089,0.139,-0.299,-0.103
0.023,0.202,0.043,-0.159,-0.122,0.18,-0.058,-0.065,0.102,0.058,-0.042,0.074,-0.087,0.14,-0.294,-0.105
0.024,0.201,0.047,-0.154,-0.124,0.178,-0.053,-0.063,0.106,0.062,-0.04,0.076,-0.086,0.14,-0.292,-0.106
0.025,0.205,0.051,-0.154,-0.129,0.18,-0.051,-0.058,0.112,0.067,-0.035,0.079,-0.085,0.142,-0.287,-0.108
0.026,0.207,0.057,-0.15,-0.132,0.178,-0.046,-0.059,0.111,0.069,-0.034,0.081,-0.081,0.145,-0.283,-0.109
0.027,0.206,0.059,-0.147,-0.132,0.177,-0.044,-0.065,0.107,0.068,-0.034,0.082,-0.079,0.145,-0.28,-0.108
0.028,0.207,0.06,-0.146,-0.134,0.177,-0.043,-0.06,0.107,0.067,-0.033,0.082,-0.078,0.144,-0.278,-0.108
0.029,0.207,0.064,-0.142,-0.136,0.175,-0.04,-0.059,0.107,0.069,-0.032,0.083,-0.077,0.143,-0.274,-0.11
0.03,0.205,0.07,-0.136,-0.137,0.171,-0.033,-0.054,0.115,0.074,-0.026,0.085,-0.075,0.143,-0.269,-0.114
0.031,0.209,0.078,-0.132,-0.143,0.171,-0.027,-0.049,0.116,0.076,-0.025,0.086,-0.072,0.143,-0.267,-0.115
0.032,0.208,0.078,-0.131,-0.143,0.17,-0.026,-0.044,0.117,0.076,-0.026,0.082,-0.073,0.141,-0.265,-0.117
0.033,0.206,0.079,-0.128,-0.142,0.167,-0.025,-0.04,0.118,0.078,-0.026,0.08,-0.075,0.14,-0.261,-0.119
0.034,0.208,0.085,-0.123,-0.146,0.166,-0.019,-0.037,0.119,0.082,-0.024,0.083,-0.074,0.14,-0.257,-0.122
0.035,0.208,0.09,-0.119,-0.149,0.164,-0.015,-0.037,0.119,0.083,-0.021,0.085,-0.071,0.14,-0.253,-0.123
0.036,0.212,0.097,-0.115,-0.154,0.164,-0.009,-0.033,0.122,0.086,-0.018,0.087,-0.07,0.141,-0.247,-0.127
0.037,0.213,0.102,-0.112,-0.158,0.163,-0.004,-0.029,0.127,0.09,-0.015,0.089,-0.07,0.142,-0.243,-0.129
0.038,0.214,0.103,-0.111,-0.159,0.163,-0.004,-0.036,0.123,0.088,-0.015,0.089,-0.068,0.146,-0.245,-0.127
0.039,0.215,0.104,-0.111,-0.16,0.163,-0.004,-0.033,0.126,0.089,-0.013,0.091,-0.069,0.147,-0.244,-0.129
0.04,0.212,0.103,-0.109,-0.158,0.161,-0.003,-0.025,0.13,0.093,-0.012,0.091,-0.069,0.147,-0.242,-0.13
0.041,0.209,0.102,-0.107,-0.155,0.159,-0.003,-0.024,0.132,0.093,-0.014,0.091,-0.068,0.148,-0.24,-0.13
0.042,0.209,0.104,-0.106,-0.157,0.158,-0.001,-0.025,0.133,0.095,-0.011,0.093,-0.066,0.148,-0.237,-0.133
0.043,0.212,0.113,-0.099,-0.163,0.156,0.007,-0.024,0.133,0.096,-0.012,0.094,-0.065,0.148,-0.232,-0.134
0.044,0.214,0.12,-0.094,-0.167,0.154,0.013,-0.022,0.139,0.101,-0.009,0.098,-0.065,0.15,-0.227,-0.137
0.045,0.219,0.129,-0.09,-0.173,0.154,0.019,-0.025,0.144,0.108,0.001,0.105,-0.058,0.155,-0.218,-0.14
0.046,0.227,0.145,-0.082,-0.186,0.155,0.032,-0.029,0.147,0.114,0.008,0.112,-0.052,0.16,-0.202,-0.14
0.047,0.229,0.15,-0.08,-0.189,0.154,0.035,-0.031,0.148,0.117,0.013,0.116,-0.05,0.162,-0.198,-0.141
0.048,0.226,0.148,-0.077,-0.186,0.151,0.035,-0.033,0.144,0.115,0.011,0.116,-0.049,0.161,-0.196,-0.14
0.049,0.235,0.161,-0.075,-0.198,0.155,0.043,-0.033,0.151,0.121,0.016,0.121,-0.045,0.165,-0.188,-0.139
0.05,0.246,0.172,-0.074,-0.209,0.161,0.049,-0.036,0.155,0.125,0.018,0.126,-0.041,0.168,-0.182,-0.139
0.051,0.238,0.169,-0.07,-0.203,0.154,0.05,-0.036,0.151,0.12,0.016,0.123,-0.042,0.167,-0.181,-0.138
0.052,0.232,0.167,-0.066,-0.199,0.149,0.051,-0.035,0.147,0.116,0.011,0.118,-0.044,0.164,-0.183,-0.134
0.053,0.236,0.167,-0.07,-0.201,0.153,0.049,-0.041,0.139,0.108,0.005,0.116,-0.045,0.162,-0.181,-0.129
0.054,0.238,0.164,-0.074,-0.201,0.156,0.045,-0.043,0.134,0.105,0.003,0.116,-0.044,0.163,-0.184,-0.124
0.055,0.237,0.165,-0.072,-0.201,0.155,0.046,-0.051,0.127,0.098,-0.003,0.113,-0.044,0.162,-0.185,-0.116
0.056,0.235,0.167,-0.069,-0.201,0.152,0.049,-0.067,0.115,0.09,-0.008,0.11,-0.045,0.16,-0.178,-0.11
0.057,0.234,0.169,-0.066,-0.201,0.15,0.051,-0.079,0.107,0.083,-0.012,0.109,-0.044,0.16,-0.178,-0.105
0.058,0.235,0.172,-0.063,-0.203,0.149,0.055,-0.09,0.102,0.077,-0.015,0.106,-0.043,0.159,-0.175,-0.1
0.059,0.235,0.178,-0.057,-0.206,0.146,0.06,-0.108,0.091,0.07,-0.019,0.104,-0.043,0.157,-0.168,-0.096
0.06,0.237,0.184,-0.052,-0.211,0.145,0.066,-0.138,0.073,0.059,-0.025,0.106,-0.04,0.159,-0.165,-0.088
0.061,0.237,0.186,-0.051,-0.211,0.144,0.067,-0.16,0.052,0.045,-0.033,0.103,-0.039,0.159,-0.167,-0.08
0.062,0.235,0.184,-0.051,-0.21,0.144,0.067,-0.169,0.04,0.035,-0.04,0.099,-0.041,0.158,-0.17,-0.075
0.063,0.239,0.182,-0.057,-0.21,0.148,0.062,-0.18,0.033,0.032,-0.044,0.099,-0.041,0.161,-0.175,-0.071
0.064,0.245,0.18,-0.065,-0.212,0.155,0.058,-0.185,0.032,0.032,-0.044,0.099,-0.04,0.166,-0.183,-0.068
0.065,0.246,0.174,-0.072,-0.21,0.16,0.051,-0.183,0.033,0.029,-0.044,0.097,-0.041,0.168,-0.192,-0.065
0.066,0.245,0.174,-0.071,-0.209,0.159,0.051,-0.182,0.027,0.024,-0.049,0.095,-0.041,0.167,-0.194,-0.062
0.067,0.248,0.176,-0.072,-0.212,0.161,0.051,-0.181,0.027,0.024,-0.05,0.095,-0.039,0.17,-0.191,-0.06
0.068,0.248,0.177,-0.071,-0.213,0.16,0.053,-0.183,0.026,0.024,-0.051,0.095,-0.037,0.173,-0.189,-0.06
0.069,0.251,0.186,-0.065,-0.218,0.158,0.06,-0.183,0.025,0.024,-0.051,0.095,-0.036,0.172,-0.183,-0.06
0.07,0.251,0.192,-0.059,-0.221,0.155,0.066,-0.184,0.027,0.026,-0.05,0.097,-0.035,0.172,-0.178,-0.061
0.071,0.245,0.196,-0.051,-0.221,0.148,0.072,-0.183,0.027,0.028,-0.049,0.098,-0.035,0.169,-0.17,-0.062
0.072,0.245,0.193,-0.053,-0.219,0.15,0.07,-0.184,0.025,0.025,-0.052,0.097,-0.034,0.168,-0.169,-0.06
0.073,0.24,0.182,-0.059,-0.211,0.15,0.062,-0.185,0.022,0.021,-0.057,0.092,-0.035,0.168,-0.173,-0.059
0.074,0.244,0.181,-0.063,-0.213,0.154,0.059,-0.173,0.031,0.026,-0.051,0.096,-0.035,0.171,-0.178,-0.06
0.075,0.251,0.183,-0.068,-0.217,0.16,0.058,-0.168,0.035,0.03,-0.048,0.099,-0.031,0.172,-0.18,-0.064
0.076,0.251,0.174,-0.076,-0.212,0.164,0.049,-0.169,0.033,0.027,-0.05,0.096,-0.033,0.172,-0.188,-0.062
0.077,0.257,0.167,-0.091,-0.212,0.174,0.038,-0.167,0.035,0.029,-0.049,0.098,-0.035,0.176,-0.2,-0.064
0.078,0.262,0.158,-0.104,-0.21,0.183,0.027,-0.165,0.036,0.029,-0.05,0.097,-0.035,0.178,-0.206,-0.064
0.079,0.265,0.151,-0.114,-0.208,0.19,0.019,-0.163,0.038,0.03,-0.051,0.097,-0.035,0.182,-0.215,-0.062
0.08,0.261,0.145,-0.116,-0.203,0.189,0.015,-0.161,0.04,0.029,-0.05,0.095,-0.036,0.183,-0.222,-0.064
0.081,0.258,0.134,-0.124,-0.196,0.192,0.005,-0.158,0.042,0.03,-0.047,0.095,-0.035,0.184,-0.232,-0.064
0.082,0.261,0.128,-0.134,-0.195,0.198,-0.003,-0.157,0.044,0.032,-0.046,0.099,-0.033,0.189,-0.238,-0.065
0.083,0.261,0.124,-0.137,-0.192,0.199,-0.006,-0.16,0.041,0.028,-0.049,0.096,-0.034,0.19,-0.241,-0.061
0.084,0.262,0.124,-0.138,-0.194,0.201,-0.006,-0.162,0.04,0.029,-0.049,0.094,-0.034,0.19,-0.242,-0.061
0.085,0.262,0.124,-0.139,-0.193,0.201,-0.007,-0.157,0.044,0.034,-0.046,0.096,-0.032,0.192,-0.242,-0.066
0.086,0.261,0.124,-0.138,-0.193,0.2,-0.007,-0.15,0.05,0.039,-0.041,0.099,-0.029,0.194,-0.24,-0.069
0.087,0.256,0.123,-0.133,-0.19,0.195,-0.004,-0.146,0.054,0.043,-0.038,0.101,-0.029,0.194,-0.234,-0.073
0.088,0.252,0.119,-0.133,-0.186,0.193,-0.006,-0.145,0.055,0.043,-0.039,0.1,-0.029,0.193,-0.238,-0.074
0.089,0.253,0.116,-0.137,-0.184,0.195,-0.01,-0.152,0.048,0.037,-0.045,0.096,-0.032,0.192,-0.242,-0.07
0.09,0.251,0.115,-0.137,-0.182,0.194,-0.011,-0.149,0.046,0.035,-0.047,0.094,-0.032,0.192,-0.24,-0.069
0.091,0.255,0.116,-0.14,-0.185,0.198,-0.011,-0.141,0.051,0.038,-0.043,0.098,-0.029,0.193,-0.244,-0.07
0.092,0.257,0.116,-0.141,-0.186,0.2,-0.013,-0.141,0.053,0.041,-0.043,0.1,-0.028,0.195,-0.248,-0.071
0.093,0.255,0.118,-0.138,-0.186,0.197,-0.01,-0.137,0.056,0.043,-0.039,0.102,-0.026,0.197,-0.245,-0.072
0.094,0.255,0.12,-0.136,-0.188,0.196,-0.008,-0.135,0.059,0.046,-0.036,0.105,-0.024,0.197,-0.242,-0.074
0.095,0.253,0.119,-0.134,-0.186,0.194,-0.007,-0.135,0.064,0.051,-0.032,0.106,-0.024,0.197,-0.243,-0.079
0.096,0.25,0.119,-0.132,-0.184,0.192,-0.006,-0.127,0.069,0.057,-0.026,0.107,-0.025,0.197,-0.237,-0.085
0.097,0.246,0.113,-0.134,-0.18,0.191,-0.011,-0.115,0.077,0.062,-0.021,0.11,-0.024,0.199,-0.239,-0.093
0.098,0.248,0.111,-0.138,-0.179,0.194,-0.014,-0.108,0.086,0.072,-0.013,0.114,-0.022,0.203,-0.249,-0.099
0.099,0.249,0.11,-0.14,-0.179,0.195,-0.015,-0.104,0.091,0.075,-0.01,0.117,-0.02,0.205,-0.248,-0.101
0.1,0.244,0.103,-0.141,-0.173,0.193,-0.019,-0.097,0.099,0.078,-0.009,0.117,-0.024,0.203,-0.251,-0.106
0.101,0.237,0.095,-0.142,-0.166,0.19,-0.024,-0.09,0.103,0.079,-0.009,0.112,-0.029,0.198,-0.26,-0.11
0.102,0.228,0.087,-0.141,-0.157,0.184,-0.027,-0.086,0.104,0.076,-0.015,0.105,-0.035,0.191,-0.265,-0.108
0.103,0.222,0.078,-0.144,-0.149,0.183,-0.033,-0.083,0.103,0.074,-0.019,0.1,-0.041,0.185,-0.271,-0.108
0.104,0.214,0.068,-0.146,-0.141,0.18,-0.039,-0.08,0.101,0.07,-0.025,0.09,-0.048,0.179,-0.276,-0.106
0.105,0.205,0.059,-0.146,-0.132,0.176,-0.043,-0.077,0.1,0.066,-0.03,0.086,-0.056,0.172,-0.28,-0.107
0.106,0.2,0.052,-0.147,-0.126,0.174,-0.048,-0.076,0.098,0.061,-0.035,0.08,-0.062,0.167,-0.285,-0.106
0.107,0.195,0.049,-0.146,-0.121,0.171,-0.049,-0.067,0.1,0.061,-0.036,0.074,-0.067,0.162,-0.29,-0.107
0.108,0.193,0.043,-0.149,-0.118,0.172,-0.053,-0.067,0.098,0.059,-0.04,0.072,-0.07,0.157,-0.296,-0.105
0.109,0.186,0.035,-0.152,-0.111,0.17,-0.059,-0.065,0.095,0.052,-0.046,0.065,-0.076,0.151,-0.301,-0.104
0.11,0.18,0.028,-0.153,-0.103,0.167,-0.063,-0.062,0.091,0.047,-0.053,0.059,-0.082,0.144,-0.307,-0.102
0.111,0.181,0.022,-0.159,-0.102,0.171,-0.069,-0.068,0.085,0.041,-0.059,0.054,-0.084,0.143,-0.31,-0.097
0.112,0.182,0.017,-0.166,-0.1,0.174,-0.074,-0.069,0.077,0.035,-0.066,0.049,-0.086,0.141,-0.319,-0.091
0.113,0.182,0.017,-0.166,-0.099,0.174,-0.074,-0.071,0.071,0.029,-0.072,0.045,-0.09,0.139,-0.323,-0.089
0.114,0.178,0.015,-0.163,-0.096,0.171,-0.074,-0.07,0.076,0.029,-0.073,0.043,-0.093,0.135,-0.321,-0.091
0.115,0.176,0.009,-0.166,-0.092,0.171,-0.078,-0.071,0.074,0.025,-0.077,0.039,-0.096,0.134,-0.326,-0.086
0.116,0.175,0.004,-0.171,-0.089,0.173,-0.084,-0.074,0.066,0.019,-0.083,0.034,-0.098,0.132,-0.329,-0.083
0.117,0.174,0.001,-0.173,-0.087,0.173,-0.086,-0.071,0.066,0.019,-0.084,0.032,-0.1,0.129,-0.332,-0.084
0.118,0.176,-0.001,-0.176,-0.087,0.176,-0.088,-0.076,0.065,0.016,-0.087,0.029,-0.102,0.129,-0.343,-0.081
0.119,0.174,-0.003,-0.177,-0.085,0.175,-0.09,-0.071,0.066,0.014,-0.089,0.026,-0.103,0.126,-0.339,-0.08
0.12,0.171,-0.006,-0.177,-0.082,0.174,-0.092,-0.07,0.066,0.013,-0.089,0.027,-0.102,0.125,-0.335,-0.079
0.121,0.17,-0.012,-0.181,-0.079,0.175,-0.097,-0.072,0.063,0.011,-0.093,0.025,-0.104,0.125,-0.343,-0.077
0.122,0.168,-0.016,-0.183,-0.075,0.176,-0.1,-0.07,0.06,0.007,-0.096,0.022,-0.106,0.124,-0.345,-0.076
0.123,0.168,-0.017,-0.185,-0.075,0.176,-0.101,-0.073,0.061,0.008,-0.096,0.022,-0.105,0.123,-0.347,-0.077
0.124,0.168,-0.018,-0.187,-0.074,0.177,-0.102,-0.071,0.061,0.009,-0.098,0.022,-0.106,0.122,-0.347,-0.077
0.125,0.17,-0.018,-0.187,-0.076,0.178,-0.102,-0.07,0.059,0.008,-0.097,0.021,-0.106,0.123,-0.346,-0.077
0.126,0.168,-0.018,-0.186,-0.075,0.177,-0.102,-0.068,0.061,0.009,-0.096,0.023,-0.105,0.123,-0.347,-0.078
0.127,0.162,-0.021,-0.183,-0.07,0.172,-0.102,-0.07,0.059,0.005,-0.098,0.02,-0.11,0.12,-0.346,-0.078
0.128,0.164,-0.02,-0.183,-0.072,0.173,-0.102,-0.071,0.059,0.007,-0.099,0.022,-0.108,0.12,-0.347,-0.079
0.129,0.169,-0.015,-0.184,-0.076,0.177,-0.1,-0.069,0.062,0.009,-0.097,0.026,-0.105,0.123,-0.349,-0.078
0.13,0.172,-0.013,-0.184,-0.08,0.178,-0.099,-0.069,0.063,0.009,-0.096,0.026,-0.106,0.124,-0.344,-0.079
0.131,0.171,-0.014,-0.185,-0.079,0.178,-0.1,-0.067,0.064,0.011,-0.096,0.028,-0.105,0.125,-0.345,-0.08
0.132,0.173,-0.015,-0.189,-0.079,0.181,-0.102,-0.067,0.062,0.008,-0.099,0.025,-0.107,0.126,-0.349,-0.077
0.133,0.173,-0.015,-0.189,-0.079,0.181,-0.102,-0.074,0.059,0.006,-0.1,0.025,-0.107,0.124,-0.349,-0.078
0.134,0.169,-0.015,-0.184,-0.076,0.177,-0.1,-0.069,0.059,0.008,-0.1,0.024,-0.107,0.122,-0.344,-0.08
0.135,0.17,-0.015,-0.185,-0.077,0.177,-0.101,-0.063,0.063,0.009,-0.099,0.025,-0.107,0.123,-0.343,-0.081
0.136,0.171,-0.018,-0.189,-0.075,0.18,-0.104,-0.071,0.061,0.007,-0.1,0.026,-0.108,0.124,-0.347,-0.08
0.137,0.171,-0.017,-0.188,-0.076,0.179,-0.102,-0.069,0.062,0.005,-0.098,0.026,-0.109,0.124,-0.349,-0.078
0.138,0.169,-0.015,-0.184,-0.076,0.176,-0.1,-0.064,0.067,0.008,-0.094,0.028,-0.108,0.124,-0.35,-0.08
0.139,0.168,-0.017,-0.185,-0.075,0.177,-0.101,-0.064,0.068,0.009,-0.094,0.026,-0.112,0.121,-0.352,-0.081
0.14,0.17,-0.018,-0.189,-0.076,0.179,-0.103,-0.066,0.065,0.007,-0.096,0.025,-0.112,0.122,-0.352,-0.081
0.141,0.17,-0.018,-0.189,-0.075,0.179,-0.103,-0.066,0.066,0.009,-0.094,0.025,-0.11,0.123,-0.35,-0.081
0.142,0.167,-0.018,-0.185,-0.074,0.176,-0.102,-0.064,0.068,0.009,-0.092,0.025,-0.111,0.122,-0.351,-0.081
0.143,0.164,-0.021,-0.184,-0.071,0.174,-0.102,-0.06,0.066,0.005,-0.092,0.024,-0.112,0.12,-0.351,-0.082
0.144,0.163,-0.021,-0.184,-0.071,0.173,-0.102,-0.059,0.068,0.009,-0.091,0.025,-0.112,0.119,-0.351,-0.083
0.145,0.165,-0.021,-0.185,-0.072,0.175,-0.103,-0.059,0.068,0.009,-0.091,0.026,-0.111,0.121,-0.352,-0.082
0.146,0.165,-0.022,-0.188,-0.071,0.176,-0.105,-0.059,0.067,0.007,-0.091,0.025,-0.111,0.122,-0.35,-0.082
0.147,0.164,-0.025,-0.188,-0.07,0.176,-0.106,-0.059,0.069,0.009,-0.091,0.025,-0.111,0.121,-0.35,-0.082
0.148,0.163,-0.026,-0.189,-0.069,0.176,-0.107,-0.063,0.067,0.008,-0.091,0.025,-0.111,0.122,-0.349,-0.082
0.149,0.164,-0.025,-0.188,-0.07,0.176,-0.106,-0.061,0.068,0.009,-0.091,0.027,-0.11,0.122,-0.351,-0.082
0.15,0.166,-0.022,-0.188,-0.072,0.177,-0.105,-0.059,0.068,0.009,-0.09,0.027,-0.11,0.123,-0.352,-0.082
0.151,0.166,-0.021,-0.188,-0.072,0.177,-0.104,-0.06,0.067,0.009,-0.089,0.026,-0.111,0.124,-0.354,-0.082
0.152,0.161,-0.027,-0.188,-0.068,0.174,-0.107,-0.06,0.065,0.009,-0.09,0.025,-0.112,0.122,-0.357,-0.082
0.153,0.157,-0.032,-0.189,-0.063,0.173,-0.111,-0.06,0.064,0.008,-0.092,0.024,-0.112,0.12,-0.353,-0.083
0.154,0.166,-0.028,-0.193,-0.07,0.179,-0.11,-0.059,0.067,0.009,-0.09,0.026,-0.108,0.126,-0.356,-0.082
0.155,0.164,-0.025,-0.189,-0.069,0.176,-0.107,-0.057,0.071,0.011,-0.088,0.028,-0.11,0.123,-0.352,-0.085
0.156,0.163,-0.024,-0.187,-0.07,0.175,-0.105,-0.051,0.079,0.019,-0.083,0.029,-0.111,0.122,-0.351,-0.088
0.157,0.168,-0.024,-0.192,-0.072,0.18,-0.108,-0.046,0.087,0.028,-0.076,0.03,-0.109,0.124,-0.356,-0.091
0.158,0.164,-0.029,-0.192,-0.068,0.178,-0.11,-0.041,0.097,0.035,-0.071,0.029,-0.112,0.122,-0.355,-0.098
0.159,0.169,-0.028,-0.197,-0.071,0.183,-0.113,-0.032,0.108,0.046,-0.062,0.03,-0.11,0.126,-0.357,-0.102
0.16,0.173,-0.028,-0.201,-0.073,0.187,-0.115,-0.023,0.121,0.058,-0.054,0.032,-0.112,0.125,-0.358,-0.108
0.161,0.174,-0.032,-0.205,-0.071,0.19,-0.118,-0.013,0.138,0.07,-0.046,0.032,-0.114,0.125,-0.364,-0.116
0.162,0.173,-0.039,-0.212,-0.067,0.193,-0.126,0.001,0.159,0.088,-0.033,0.03,-0.117,0.124,-0.371,-0.125
0.163,0.169,-0.049,-0.218,-0.06,0.194,-0.134,0.024,0.192,0.118,-0.015,0.025,-0.128,0.12,-0.381,-0.141
0.164,0.168,-0.058,-0.225,-0.055,0.197,-0.141,0.055,0.238,0.159,0.008,0.019,-0.139,0.116,-0.388,-0.164
0.165,0.163,-0.066,-0.229,-0.049,0.196,-0.147,0.09,0.291,0.206,0.038,0.009,-0.155,0.107,-0.391,-0.192
0.166,0.159,-0.07,-0.228,-0.045,0.194,-0.148,0.124,0.348,0.261,0.072,0.001,-0.171,0.1,-0.393,-0.225
0.167,0.162,-0.069,-0.23,-0.046,0.196,-0.149,0.163,0.409,0.32,0.108,-0.01,-0.182,0.096,-0.393,-0.258
0.168,0.165,-0.064,-0.229,-0.051,0.197,-0.146,0.194,0.466,0.372,0.14,-0.021,-0.194,0.092,-0.388,-0.29
0.169,0.164,-0.056,-0.22,-0.054,0.192,-0.138,0.216,0.516,0.422,0.175,-0.026,-0.201,0.091,-0.378,-0.321
0.17,0.166,-0.044,-0.21,-0.061,0.188,-0.127,0.24,0.57,0.482,0.217,-0.028,-0.205,0.095,-0.368,-0.353
0.171,0.179,-0.021,-0.201,-0.079,0.191,-0.111,0.266,0.63,0.548,0.264,-0.018,-0.202,0.105,-0.35,-0.389
0.172,0.197,-0.013,-0.209,-0.091,0.203,-0.111,0.296,0.71,0.627,0.323,-0.002,-0.196,0.123,-0.346,-0.426
0.173,0.217,-0.021,-0.238,-0.098,0.228,-0.13,0.338,0.805,0.723,0.387,0.019,-0.185,0.146,-0.364,-0.465
0.174,0.236,-0.025,-0.262,-0.105,0.249,-0.143,0.384,0.884,0.802,0.441,0.035,-0.177,0.164,-0.377,-0.502
0.175,0.243,-0.013,-0.256,-0.116,0.25,-0.134,0.401,0.914,0.843,0.475,0.045,-0.172,0.169,-0.369,-0.53
0.176,0.256,0.008,-0.248,-0.132,0.253,-0.12,0.396,0.911,0.852,0.496,0.07,-0.155,0.187,-0.351,-0.543
0.177,0.275,0.03,-0.245,-0.152,0.261,-0.107,0.385,0.898,0.853,0.517,0.105,-0.132,0.212,-0.336,-0.556
0.178,0.298,0.069,-0.23,-0.183,0.264,-0.08,0.358,0.885,0.871,0.555,0.16,-0.094,0.249,-0.306,-0.574
0.179,0.336,0.1,-0.236,-0.217,0.286,-0.069,0.337,0.885,0.897,0.607,0.232,-0.047,0.3,-0.289,-0.588
0.18,0.38,0.141,-0.239,-0.261,0.309,-0.049,0.316,0.871,0.909,0.65,0.314,0.01,0.357,-0.265,-0.604
0.181,0.41,0.203,-0.208,-0.306,0.309,-0.003,0.281,0.825,0.904,0.685,0.393,0.069,0.411,-0.215,-0.62
0.182,0.444,0.265,-0.179,-0.354,0.311,0.043,0.221,0.743,0.86,0.694,0.468,0.13,0.467,-0.164,-0.615
0.183,0.473,0.35,-0.123,-0.412,0.298,0.114,0.152,0.658,0.824,0.715,0.552,0.193,0.521,-0.087,-0.618
0.184,0.492,0.431,-0.062,-0.462,0.278,0.184,0.116,0.612,0.819,0.756,0.635,0.247,0.565,-0.017,-0.638
0.185,0.514,0.497,-0.018,-0.506,0.267,0.24,0.09,0.562,0.793,0.78,0.721,0.308,0.612,0.038,-0.644
0.186,0.535,0.573,0.037,-0.553,0.249,0.304,0.03,0.477,0.741,0.794,0.808,0.373,0.662,0.105,-0.635
0.187,0.55,0.653,0.102,-0.602,0.225,0.378,-0.067,0.334,0.643,0.776,0.89,0.438,0.711,0.18,-0.603
0.188,0.551,0.729,0.177,-0.64,0.188,0.453,-0.155,0.164,0.507,0.717,0.953,0.499,0.744,0.253,-0.567
0.189,0.539,0.806,0.266,-0.673,0.138,0.536,-0.241,-0.018,0.353,0.64,1.002,0.553,0.765,0.329,-0.529
0.19,0.524,0.895,0.371,-0.71,0.076,0.633,-0.326,-0.207,0.18,0.545,1.063,0.616,0.789,0.42,-0.489
0.191,0.511,0.98,0.468,-0.746,0.022,0.724,-0.438,-0.444,-0.049,0.405,1.121,0.682,0.812,0.503,-0.417
0.192,0.489,1.06,0.57,-0.774,-0.04,0.815,-0.582,-0.715,-0.293,0.268,1.175,0.742,0.829,0.589,-0.324
0.193,0.482,1.128,0.645,-0.805,-0.081,0.886,-0.729,-0.944,-0.503,0.171,1.257,0.807,0.863,0.653,-0.214
0.194,0.486,1.185,0.697,-0.836,-0.105,0.941,-0.852,-1.135,-0.676,0.096,1.353,0.879,0.906,0.701,-0.119
0.195,0.473,1.22,0.747,-0.847,-0.137,0.984,-0.915,-1.254,-0.781,0.064,1.425,0.927,0.934,0.742,-0.069
0.196,0.465,1.237,0.771,-0.851,-0.153,1.004,-0.95,-1.317,-0.828,0.082,1.504,0.967,0.966,0.761,-0.038
0.197,0.468,1.252,0.784,-0.86,-0.158,1.018,-0.952,-1.323,-0.822,0.141,1.601,1.012,1.01,0.782,-0.011
0.198,0.47,1.254,0.783,-0.863,-0.156,1.018,-0.965,-1.33,-0.837,0.172,1.669,1.042,1.038,0.783,0.036
0.199,0.454,1.226,0.771,-0.84,-0.158,0.999,-0.968,-1.359,-0.875,0.171,1.699,1.048,1.037,0.765,0.097
0.2,0.444,1.186,0.742,-0.815,-0.149,0.964,-0.941,-1.351,-0.884,0.2,1.746,1.062,1.05,0.744,0.151
0.201,0.448,1.189,0.74,-0.819,-0.145,0.965,-0.965,-1.391,-0.929,0.203,1.802,1.094,1.077,0.741,0.196
0.202,0.424,1.22,0.794,-0.822,-0.184,1.007,-1.031,-1.48,-1.02,0.155,1.798,1.101,1.067,0.779,0.269
0.203,0.387,1.246,0.859,-0.817,-0.236,1.052,-1.078,-1.545,-1.096,0.09,1.748,1.082,1.03,0.823,0.332
0.204,0.359,1.236,0.876,-0.797,-0.258,1.056,-1.071,-1.559,-1.139,0.046,1.698,1.05,0.995,0.819,0.359
0.205,0.313,1.181,0.868,-0.747,-0.277,1.024,-1.047,-1.57,-1.196,-0.046,1.558,0.979,0.916,0.781,0.399
0.206,0.252,1.117,0.865,-0.684,-0.306,0.991,-1.012,-1.607,-1.327,-0.257,1.333,0.882,0.797,0.737,0.469
0.207,0.211,1.066,0.855,-0.638,-0.322,0.961,-0.994,-1.661,-1.478,-0.473,1.145,0.81,0.705,0.702,0.556
0.208,0.186,1.028,0.842,-0.607,-0.328,0.935,-1.026,-1.73,-1.603,-0.641,0.984,0.746,0.625,0.673,0.646
0.209,0.154,0.956,0.801,-0.554,-0.324,0.878,-1.022,-1.749,-1.677,-0.779,0.792,0.651,0.525,0.617,0.715
0.21,0.123,0.859,0.736,-0.491,-0.306,0.797,-0.983,-1.722,-1.706,-0.889,0.597,0.55,0.423,0.54,0.76
0.211,0.102,0.762,0.66,-0.431,-0.279,0.711,-0.936,-1.662,-1.694,-0.964,0.411,0.452,0.331,0.456,0.786
0.212,0.08,0.673,0.594,-0.377,-0.257,0.633,-0.891,-1.595,-1.673,-1.041,0.17,0.331,0.223,0.379,0.814
0.213,0.055,0.594,0.539,-0.325,-0.241,0.567,-0.846,-1.524,-1.641,-1.093,-0.042,0.217,0.125,0.312,0.834
0.214,0.034,0.523,0.489,-0.278,-0.228,0.506,-0.79,-1.426,-1.595,-1.126,-0.18,0.13,0.052,0.256,0.84
0.215,0.021,0.481,0.46,-0.251,-0.219,0.47,-0.776,-1.365,-1.581,-1.177,-0.28,0.068,0.001,0.218,0.861
0.216,0.022,0.439,0.416,-0.23,-0.197,0.427,-0.753,-1.313,-1.567,-1.219,-0.331,0.035,-0.024,0.174,0.871
0.217,0.024,0.383,0.359,-0.203,-0.168,0.371,-0.711,-1.244,-1.539,-1.256,-0.366,0.007,-0.044,0.119,0.867
0.218,0.011,0.32,0.308,-0.166,-0.148,0.315,-0.646,-1.156,-1.492,-1.268,-0.399,-0.033,-0.07,0.066,0.848
0.219,-0.004,0.269,0.274,-0.132,-0.139,0.271,-0.589,-1.095,-1.462,-1.294,-0.435,-0.07,-0.102,0.024,0.832
0.22,-0.025,0.231,0.256,-0.102,-0.141,0.243,-0.559,-1.065,-1.446,-1.315,-0.459,-0.103,-0.131,-0.011,0.812
0.221,-0.043,0.188,0.231,-0.072,-0.137,0.209,-0.501,-1.002,-1.391,-1.286,-0.461,-0.132,-0.149,-0.041,0.769
0.222,-0.04,0.15,0.191,-0.056,-0.115,0.171,-0.453,-0.928,-1.303,-1.223,-0.447,-0.149,-0.146,-0.08,0.719
0.223,-0.025,0.117,0.141,-0.046,-0.083,0.13,-0.427,-0.863,-1.218,-1.152,-0.422,-0.16,-0.132,-0.123,0.676
0.224,-0.019,0.079,0.098,-0.03,-0.058,0.088,-0.401,-0.787,-1.13,-1.081,-0.4,-0.172,-0.125,-0.165,0.633
0.225,-0.019,0.037,0.057,-0.009,-0.037,0.046,-0.345,-0.695,-1.028,-1.001,-0.382,-0.193,-0.122,-0.206,0.577
0.226,-0.008,-0.002,0.006,0.005,-0.007,0.003,-0.301,-0.621,-0.942,-0.932,-0.362,-0.203,-0.112,-0.247,0.53
0.227,0.002,-0.032,-0.034,0.015,0.018,-0.033,-0.253,-0.541,-0.857,-0.864,-0.342,-0.213,-0.103,-0.281,0.482
0.228,0.01,-0.06,-0.07,0.025,0.04,-0.065,-0.174,-0.444,-0.758,-0.781,-0.318,-0.227,-0.096,-0.308,0.419
0.229,0.023,-0.096,-0.119,0.036,0.071,-0.107,-0.104,-0.342,-0.644,-0.68,-0.275,-0.228,-0.072,-0.35,0.344
0.23,0.034,-0.12,-0.155,0.043,0.095,-0.138,-0.064,-0.263,-0.548,-0.591,-0.231,-0.221,-0.05,-0.38,0.282
0.231,0.047,-0.126,-0.173,0.04,0.111,-0.15,-0.04,-0.215,-0.485,-0.534,-0.2,-0.213,-0.032,-0.391,0.24
0.232,0.059,-0.126,-0.186,0.034,0.123,-0.157,-0.017,-0.17,-0.425,-0.483,-0.174,-0.207,-0.015,-0.398,0.202
0.233,0.065,-0.118,-0.183,0.027,0.124,-0.151,-0.013,-0.143,-0.378,-0.437,-0.15,-0.199,-0.005,-0.391,0.168
0.234,0.067,-0.109,-0.176,0.021,0.121,-0.143,-0.012,-0.124,-0.335,-0.396,-0.131,-0.193,0.006,-0.384,0.137
0.235,0.067,-0.101,-0.168,0.017,0.118,-0.135,-0.023,-0.122,-0.306,-0.366,-0.115,-0.188,0.015,-0.38,0.113
0.236,0.071,-0.091,-0.162,0.009,0.117,-0.127,-0.037,-0.126,-0.283,-0.344,-0.098,-0.18,0.025,-0.371,0.098
0.237,0.08,-0.08,-0.159,0,0.119,-0.119,-0.041,-0.116,-0.255,-0.315,-0.081,-0.17,0.038,-0.365,0.079
0.238,0.088,-0.07,-0.158,-0.009,0.123,-0.114,-0.049,-0.106,-0.226,-0.287,-0.062,-0.159,0.05,-0.36,0.059
0.239,0.094,-0.064,-0.158,-0.015,0.126,-0.111,-0.05,-0.09,-0.197,-0.263,-0.05,-0.15,0.062,-0.357,0.043
0.24,0.096,-0.06,-0.155,-0.018,0.126,-0.107,-0.05,-0.072,-0.167,-0.237,-0.037,-0.145,0.069,-0.352,0.028
0.241,0.111,-0.046,-0.158,-0.033,0.135,-0.102,-0.051,-0.05,-0.129,-0.205,-0.02,-0.134,0.082,-0.346,0.009
0.242,0.126,-0.035,-0.161,-0.045,0.144,-0.099,-0.046,-0.015,-0.086,-0.169,-0.001,-0.125,0.098,-0.341,-0.012
0.243,0.131,-0.029,-0.16,-0.051,0.146,-0.095,-0.028,0.021,-0.046,-0.137,0.017,-0.119,0.108,-0.331,-0.033
0.244,0.146,-0.011,-0.157,-0.068,0.152,-0.084,-0.019,0.055,-0.006,-0.103,0.036,-0.108,0.12,-0.321,-0.052
0.245,0.16,0.01,-0.15,-0.085,0.155,-0.07,-0.025,0.086,0.034,-0.069,0.057,-0.099,0.133,-0.307,-0.073
0.246,0.169,0.022,-0.146,-0.095,0.158,-0.062,-0.022,0.116,0.07,-0.037,0.074,-0.09,0.143,-0.297,-0.091
0.247,0.178,0.029,-0.149,-0.103,0.164,-0.06,-0.017,0.14,0.099,-0.011,0.087,-0.084,0.153,-0.294,-0.105
0.248,0.186,0.031,-0.155,-0.108,0.171,-0.062,-0.009,0.159,0.12,0.008,0.1,-0.079,0.162,-0.292,-0.117
0.249,0.194,0.029,-0.166,-0.112,0.18,-0.069,-0.002,0.173,0.136,0.022,0.103,-0.076,0.167,-0.298,-0.124
0.25,0.198,0.027,-0.171,-0.112,0.184,-0.072,0.006,0.189,0.152,0.034,0.106,-0.075,0.171,-0.301,-0.131
0.251,0.2,0.025,-0.174,-0.112,0.187,-0.074,0.007,0.195,0.161,0.04,0.107,-0.075,0.171,-0.303,-0.134
0.252,0.199,0.022,-0.176,-0.111,0.188,-0.077,0.01,0.199,0.165,0.043,0.105,-0.077,0.17,-0.304,-0.136
0.253,0.196,0.02,-0.176,-0.107,0.186,-0.078,0.013,0.205,0.171,0.047,0.104,-0.077,0.172,-0.304,-0.14
0.254,0.195,0.019,-0.175,-0.107,0.185,-0.078,0.011,0.205,0.171,0.049,0.102,-0.079,0.171,-0.302,-0.142
0.255,0.203,0.025,-0.178,-0.113,0.191,-0.077,0.015,0.209,0.177,0.053,0.104,-0.077,0.172,-0.305,-0.142
0.256,0.207,0.025,-0.182,-0.116,0.195,-0.079,0.015,0.213,0.183,0.058,0.105,-0.078,0.174,-0.309,-0.145
0.257,0.205,0.025,-0.181,-0.115,0.194,-0.078,0.021,0.218,0.189,0.062,0.106,-0.077,0.175,-0.307,-0.148
0.258,0.205,0.024,-0.181,-0.114,0.193,-0.079,0.021,0.221,0.192,0.065,0.107,-0.077,0.175,-0.309,-0.15
0.259,0.204,0.025,-0.18,-0.114,0.193,-0.078,0.018,0.221,0.194,0.067,0.107,-0.078,0.175,-0.306,-0.153
0.26,0.207,0.027,-0.18,-0.117,0.194,-0.076,0.019,0.226,0.2,0.072,0.111,-0.076,0.177,-0.304,-0.156
0.261,0.207,0.025,-0.182,-0.116,0.195,-0.079,0.022,0.228,0.204,0.075,0.111,-0.076,0.178,-0.307,-0.159
0.262,0.202,0.021,-0.18,-0.112,0.192,-0.08,0.019,0.228,0.205,0.076,0.111,-0.08,0.176,-0.308,-0.161
0.263,0.201,0.019,-0.182,-0.11,0.192,-0.082,0.018,0.227,0.206,0.077,0.108,-0.082,0.177,-0.307,-0.162
0.264,0.209,0.024,-0.185,-0.116,0.198,-0.081,0.018,0.229,0.21,0.084,0.111,-0.079,0.18,-0.307,-0.164
0.265,0.217,0.028,-0.189,-0.122,0.203,-0.081,0.013,0.23,0.212,0.086,0.114,-0.079,0.182,-0.312,-0.166
0.266,0.213,0.026,-0.187,-0.119,0.2,-0.081,0.015,0.229,0.214,0.087,0.113,-0.08,0.18,-0.307,-0.168
0.267,0.211,0.021,-0.189,-0.116,0.201,-0.084,0.017,0.231,0.217,0.09,0.114,-0.08,0.181,-0.307,-0.171
0.268,0.214,0.019,-0.195,-0.117,0.205,-0.087,0.017,0.231,0.218,0.09,0.115,-0.079,0.183,-0.31,-0.172
0.269,0.217,0.021,-0.197,-0.119,0.207,-0.088,0.015,0.234,0.221,0.094,0.116,-0.079,0.184,-0.308,-0.174
0.27,0.217,0.022,-0.195,-0.119,0.206,-0.086,0.014,0.237,0.226,0.098,0.117,-0.078,0.185,-0.305,-0.176
0.271,0.217,0.025,-0.193,-0.12,0.205,-0.085,0.018,0.239,0.231,0.099,0.119,-0.075,0.186,-0.306,-0.178
0.272,0.225,0.026,-0.2,-0.125,0.212,-0.086,0.015,0.238,0.233,0.1,0.122,-0.074,0.188,-0.31,-0.179
0.273,0.223,0.026,-0.197,-0.124,0.21,-0.086,0.018,0.24,0.235,0.101,0.122,-0.075,0.186,-0.305,-0.181
0.274,0.222,0.028,-0.194,-0.124,0.207,-0.083,0.022,0.247,0.24,0.106,0.124,-0.073,0.186,-0.305,-0.183
0.275,0.225,0.028,-0.198,-0.126,0.211,-0.085,0.021,0.249,0.243,0.107,0.126,-0.071,0.191,-0.311,-0.183
0.276,0.223,0.027,-0.196,-0.124,0.209,-0.085,0.024,0.252,0.245,0.111,0.127,-0.072,0.189,-0.312,-0.185
0.277,0.217,0.025,-0.192,-0.121,0.205,-0.084,0.022,0.254,0.248,0.114,0.127,-0.072,0.188,-0.303,-0.188
0.278,0.219,0.026,-0.193,-0.122,0.206,-0.083,0.021,0.257,0.253,0.115,0.128,-0.071,0.189,-0.302,-0.189
0.279,0.225,0.03,-0.195,-0.127,0.209,-0.082,0.025,0.261,0.256,0.119,0.131,-0.07,0.191,-0.307,-0.191
0.28,0.217,0.025,-0.193,-0.12,0.205,-0.084,0.023,0.256,0.253,0.116,0.128,-0.073,0.188,-0.304,-0.191
0.281,0.223,0.029,-0.194,-0.126,0.208,-0.083,0.029,0.262,0.258,0.121,0.132,-0.07,0.191,-0.306,-0.193
0.282,0.231,0.035,-0.196,-0.133,0.214,-0.081,0.024,0.266,0.262,0.126,0.136,-0.067,0.194,-0.309,-0.194
0.283,0.227,0.029,-0.198,-0.128,0.212,-0.085,0.018,0.262,0.259,0.122,0.133,-0.07,0.193,-0.308,-0.195
0.284,0.23,0.03,-0.199,-0.13,0.214,-0.084,0.022,0.262,0.261,0.125,0.134,-0.07,0.194,-0.309,-0.196
0.285,0.228,0.033,-0.196,-0.13,0.212,-0.081,0.022,0.265,0.264,0.128,0.138,-0.067,0.195,-0.309,-0.197
0.286,0.226,0.032,-0.194,-0.129,0.21,-0.081,0.025,0.267,0.268,0.131,0.139,-0.065,0.196,-0.307,-0.198
0.287,0.226,0.034,-0.192,-0.13,0.209,-0.08,0.02,0.268,0.271,0.134,0.142,-0.064,0.197,-0.305,-0.2
0.288,0.23,0.039,-0.19,-0.134,0.21,-0.075,0.029,0.275,0.275,0.139,0.146,-0.061,0.2,-0.306,-0.201
0.289,0.229,0.042,-0.188,-0.135,0.208,-0.073,0.034,0.276,0.278,0.141,0.15,-0.059,0.203,-0.307,-0.201
0.29,0.221,0.037,-0.184,-0.129,0.203,-0.073,0.026,0.273,0.277,0.141,0.149,-0.062,0.201,-0.307,-0.203
0.291,0.218,0.035,-0.183,-0.127,0.202,-0.074,0.028,0.275,0.28,0.143,0.15,-0.06,0.201,-0.303,-0.204
0.292,0.225,0.042,-0.183,-0.133,0.204,-0.071,0.029,0.278,0.283,0.146,0.155,-0.059,0.204,-0.301,-0.205
0.293,0.228,0.045,-0.182,-0.137,0.205,-0.069,0.022,0.277,0.283,0.147,0.154,-0.059,0.206,-0.306,-0.204
0.294,0.222,0.044,-0.178,-0.133,0.201,-0.068,0.026,0.278,0.284,0.147,0.156,-0.06,0.204,-0.306,-0.207
0.295,0.219,0.041,-0.178,-0.13,0.199,-0.069,0.033,0.281,0.284,0.148,0.157,-0.059,0.203,-0.301,-0.209
0.296,0.22,0.04,-0.18,-0.13,0.201,-0.07,0.033,0.283,0.288,0.151,0.161,-0.058,0.206,-0.299,-0.21
0.297,0.225,0.041,-0.184,-0.132,0.204,-0.072,0.032,0.284,0.293,0.155,0.165,-0.056,0.207,-0.305,-0.213
0.298,0.228,0.043,-0.185,-0.135,0.207,-0.071,0.029,0.282,0.293,0.156,0.164,-0.056,0.207,-0.303,-0.212
0.299,0.227,0.047,-0.179,-0.137,0.203,-0.066,0.03,0.286,0.296,0.159,0.168,-0.054,0.208,-0.297,-0.213
0.3,0.223,0.048,-0.175,-0.135,0.2,-0.064,0.029,0.287,0.297,0.159,0.167,-0.056,0.208,-0.301,-0.213
0.301,0.225,0.051,-0.173,-0.138,0.2,-0.061,0.03,0.286,0.299,0.162,0.17,-0.056,0.207,-0.299,-0.216
0.302,0.228,0.054,-0.173,-0.141,0.201,-0.059,0.031,0.288,0.302,0.167,0.173,-0.053,0.21,-0.298,-0.217
0.303,0.227,0.053,-0.174,-0.14,0.201,-0.06,0.031,0.29,0.302,0.167,0.172,-0.056,0.21,-0.299,-0.217
0.304,0.228,0.056,-0.172,-0.142,0.201,-0.058,0.029,0.291,0.303,0.168,0.172,-0.058,0.209,-0.298,-0.218
0.305,0.23,0.059,-0.171,-0.144,0.201,-0.056,0.026,0.288,0.302,0.167,0.172,-0.056,0.212,-0.296,-0.219
0.306,0.229,0.061,-0.167,-0.144,0.198,-0.052,0.033,0.291,0.305,0.171,0.173,-0.055,0.211,-0.292,-0.222
0.307,0.228,0.063,-0.165,-0.145,0.197,-0.051,0.033,0.291,0.307,0.17,0.173,-0.056,0.212,-0.292,-0.223
0.308,0.231,0.064,-0.167,-0.147,0.199,-0.051,0.029,0.293,0.31,0.171,0.175,-0.054,0.215,-0.292,-0.224
0.309,0.23,0.064,-0.165,-0.146,0.198,-0.051,0.033,0.295,0.311,0.174,0.174,-0.054,0.213,-0.291,-0.226
0.31,0.225,0.06,-0.164,-0.142,0.195,-0.051,0.035,0.294,0.311,0.174,0.173,-0.056,0.212,-0.292,-0.226
0.311,0.229,0.062,-0.167,-0.145,0.199,-0.052,0.036,0.299,0.317,0.178,0.177,-0.054,0.215,-0.292,-0.226
0.312,0.233,0.065,-0.168,-0.148,0.201,-0.051,0.034,0.3,0.319,0.18,0.178,-0.053,0.216,-0.291,-0.227
0.313,0.234,0.067,-0.167,-0.15,0.2,-0.05,0.032,0.302,0.321,0.182,0.18,-0.051,0.215,-0.29,-0.229
0.314,0.235,0.067,-0.168,-0.151,0.202,-0.051,0.035,0.304,0.324,0.183,0.182,-0.05,0.215,-0.292,-0.23
0.315,0.235,0.066,-0.171,-0.15,0.203,-0.052,0.035,0.304,0.324,0.185,0.183,-0.049,0.217,-0.292,-0.232
0.316,0.234,0.062,-0.172,-0.148,0.203,-0.055,0.032,0.303,0.325,0.184,0.182,-0.051,0.217,-0.286,-0.231
0.317,0.23,0.058,-0.172,-0.143,0.201,-0.058,0.03,0.303,0.325,0.184,0.181,-0.053,0.217,-0.289,-0.232
0.318,0.238,0.067,-0.172,-0.152,0.205,-0.052,0.03,0.305,0.331,0.191,0.188,-0.046,0.221,-0.294,-0.234
0.319,0.244,0.073,-0.171,-0.159,0.208,-0.049,0.032,0.309,0.337,0.198,0.193,-0.042,0.224,-0.29,-0.235
0.32,0.24,0.071,-0.169,-0.156,0.205,-0.049,0.032,0.309,0.338,0.199,0.193,-0.043,0.225,-0.287,-0.236
0.321,0.24,0.069,-0.172,-0.154,0.206,-0.051,0.028,0.307,0.336,0.197,0.188,-0.046,0.222,-0.29,-0.234
0.322,0.235,0.065,-0.17,-0.149,0.203,-0.052,0.025,0.31,0.338,0.199,0.185,-0.049,0.22,-0.289,-0.236
0.323,0.236,0.067,-0.17,-0.151,0.203,-0.051,0.027,0.311,0.343,0.203,0.192,-0.046,0.222,-0.286,-0.239
0.324,0.243,0.072,-0.171,-0.158,0.207,-0.05,0.03,0.315,0.348,0.206,0.196,-0.043,0.223,-0.286,-0.24
0.325,0.247,0.077,-0.17,-0.163,0.209,-0.046,0.028,0.318,0.351,0.21,0.199,-0.041,0.228,-0.287,-0.239
0.326,0.251,0.081,-0.171,-0.166,0.211,-0.045,0.029,0.319,0.355,0.213,0.201,-0.04,0.23,-0.286,-0.242
0.327,0.247,0.078,-0.17,-0.163,0.209,-0.046,0.034,0.321,0.359,0.216,0.202,-0.041,0.228,-0.285,-0.243
0.328,0.246,0.075,-0.171,-0.161,0.209,-0.048,0.031,0.32,0.36,0.217,0.203,-0.041,0.231,-0.287,-0.243
0.329,0.248,0.078,-0.17,-0.163,0.209,-0.046,0.032,0.323,0.365,0.222,0.203,-0.039,0.232,-0.283,-0.246
0.33,0.245,0.079,-0.166,-0.162,0.205,-0.043,0.034,0.328,0.369,0.227,0.206,-0.038,0.232,-0.281,-0.247
0.331,0.243,0.078,-0.166,-0.161,0.204,-0.043,0.035,0.331,0.373,0.229,0.209,-0.038,0.233,-0.282,-0.248
0.332,0.241,0.075,-0.166,-0.159,0.204,-0.045,0.035,0.333,0.375,0.231,0.209,-0.038,0.233,-0.282,-0.249
0.333,0.241,0.076,-0.165,-0.159,0.203,-0.044,0.033,0.335,0.377,0.232,0.21,-0.037,0.233,-0.283,-0.249
0.334,0.24,0.079,-0.162,-0.16,0.202,-0.042,0.035,0.337,0.382,0.236,0.213,-0.035,0.235,-0.282,-0.249
0.335,0.238,0.079,-0.16,-0.159,0.2,-0.04,0.038,0.337,0.384,0.237,0.216,-0.034,0.235,-0.28,-0.253
0.336,0.237,0.078,-0.159,-0.157,0.198,-0.041,0.033,0.34,0.387,0.239,0.217,-0.034,0.236,-0.278,-0.254
0.337,0.237,0.081,-0.157,-0.159,0.197,-0.038,0.032,0.343,0.391,0.242,0.218,-0.034,0.237,-0.278,-0.255
0.338,0.238,0.084,-0.154,-0.161,0.197,-0.035,0.04,0.346,0.395,0.247,0.222,-0.032,0.238,-0.275,-0.257
0.339,0.24,0.086,-0.154,-0.163,0.198,-0.034,0.046,0.354,0.402,0.255,0.227,-0.029,0.24,-0.271,-0.258
0.34,0.244,0.087,-0.158,-0.165,0.201,-0.035,0.04,0.354,0.405,0.259,0.23,-0.027,0.243,-0.271,-0.259
0.341,0.244,0.086,-0.159,-0.166,0.203,-0.036,0.038,0.357,0.408,0.263,0.233,-0.025,0.246,-0.272,-0.259
0.342,0.245,0.087,-0.16,-0.166,0.203,-0.036,0.042,0.36,0.412,0.267,0.234,-0.025,0.246,-0.271,-0.261
0.343,0.247,0.087,-0.161,-0.168,0.204,-0.037,0.042,0.361,0.413,0.27,0.235,-0.026,0.246,-0.272,-0.263
0.344,0.246,0.088,-0.158,-0.168,0.203,-0.035,0.046,0.364,0.417,0.273,0.238,-0.024,0.248,-0.269,-0.265
0.345,0.246,0.09,-0.157,-0.168,0.202,-0.034,0.044,0.366,0.42,0.276,0.24,-0.024,0.251,-0.268,-0.266
0.346,0.247,0.091,-0.157,-0.17,0.203,-0.033,0.039,0.366,0.423,0.278,0.243,-0.023,0.253,-0.272,-0.266
0.347,0.244,0.09,-0.154,-0.168,0.2,-0.032,0.038,0.363,0.424,0.279,0.243,-0.023,0.254,-0.27,-0.267
0.348,0.246,0.093,-0.153,-0.17,0.2,-0.03,0.043,0.371,0.431,0.286,0.247,-0.02,0.257,-0.266,-0.27
0.349,0.251,0.099,-0.152,-0.175,0.203,-0.027,0.049,0.38,0.439,0.294,0.253,-0.015,0.26,-0.266,-0.272
0.35,0.249,0.099,-0.15,-0.174,0.201,-0.026,0.045,0.379,0.438,0.295,0.253,-0.016,0.259,-0.265,-0.273
0.351,0.246,0.098,-0.149,-0.172,0.198,-0.026,0.04,0.377,0.44,0.296,0.254,-0.017,0.259,-0.263,-0.275
0.352,0.245,0.099,-0.147,-0.172,0.197,-0.025,0.041,0.38,0.444,0.3,0.255,-0.015,0.261,-0.262,-0.276
0.353,0.247,0.1,-0.147,-0.173,0.198,-0.024,0.046,0.385,0.45,0.304,0.257,-0.015,0.262,-0.259,-0.278
0.354,0.249,0.101,-0.149,-0.175,0.2,-0.025,0.048,0.388,0.454,0.307,0.261,-0.013,0.265,-0.26,-0.281
0.355,0.249,0.101,-0.149,-0.174,0.2,-0.025,0.04,0.39,0.456,0.31,0.263,-0.011,0.267,-0.261,-0.281
0.356,0.248,0.099,-0.15,-0.173,0.2,-0.025,0.039,0.391,0.457,0.314,0.264,-0.011,0.268,-0.262,-0.282
0.357,0.256,0.104,-0.151,-0.18,0.204,-0.024,0.046,0.398,0.465,0.32,0.269,-0.006,0.272,-0.262,-0.284
0.358,0.262,0.111,-0.152,-0.186,0.207,-0.021,0.045,0.401,0.469,0.326,0.273,-0.004,0.275,-0.259,-0.284
0.359,0.259,0.107,-0.152,-0.183,0.206,-0.022,0.044,0.401,0.471,0.328,0.274,-0.003,0.276,-0.259,-0.286
0.36,0.263,0.106,-0.157,-0.184,0.21,-0.025,0.045,0.404,0.477,0.334,0.277,0.001,0.279,-0.261,-0.286
0.361,0.264,0.105,-0.159,-0.184,0.212,-0.027,0.044,0.406,0.479,0.339,0.28,0.001,0.28,-0.262,-0.287
0.362,0.261,0.104,-0.158,-0.182,0.209,-0.026,0.044,0.408,0.484,0.341,0.282,0.001,0.281,-0.258,-0.289
0.363,0.263,0.107,-0.157,-0.185,0.21,-0.025,0.046,0.414,0.491,0.346,0.286,0.003,0.284,-0.256,-0.292
0.364,0.264,0.11,-0.154,-0.186,0.209,-0.022,0.047,0.418,0.495,0.35,0.288,0.004,0.286,-0.252,-0.295
0.365,0.265,0.111,-0.154,-0.188,0.21,-0.021,0.041,0.418,0.498,0.354,0.29,0.005,0.288,-0.25,-0.295
0.366,0.265,0.112,-0.153,-0.189,0.209,-0.021,0.045,0.42,0.501,0.358,0.291,0.005,0.289,-0.249,-0.296
0.367,0.264,0.111,-0.153,-0.188,0.209,-0.021,0.045,0.423,0.506,0.362,0.293,0.005,0.288,-0.248,-0.299
0.368,0.266,0.114,-0.152,-0.19,0.209,-0.019,0.042,0.427,0.512,0.363,0.297,0.006,0.291,-0.249,-0.301
0.369,0.267,0.117,-0.15,-0.192,0.208,-0.016,0.043,0.43,0.516,0.365,0.301,0.009,0.292,-0.247,-0.303
0.37,0.27,0.12,-0.15,-0.195,0.21,-0.015,0.044,0.433,0.522,0.372,0.304,0.011,0.293,-0.243,-0.303
0.371,0.271,0.121,-0.149,-0.197,0.21,-0.014,0.053,0.44,0.529,0.379,0.308,0.013,0.298,-0.242,-0.304
0.372,0.276,0.124,-0.151,-0.2,0.214,-0.013,0.05,0.444,0.534,0.387,0.314,0.019,0.304,-0.241,-0.305
0.373,0.277,0.126,-0.151,-0.201,0.214,-0.013,0.048,0.446,0.539,0.39,0.318,0.019,0.306,-0.239,-0.307
0.374,0.276,0.124,-0.152,-0.2,0.214,-0.014,0.049,0.449,0.544,0.396,0.321,0.019,0.306,-0.241,-0.31
0.375,0.277,0.126,-0.151,-0.201,0.214,-0.013,0.047,0.453,0.55,0.404,0.325,0.022,0.309,-0.24,-0.312
0.376,0.274,0.124,-0.15,-0.2,0.212,-0.013,0.051,0.458,0.556,0.409,0.329,0.026,0.312,-0.238,-0.315
0.377,0.278,0.127,-0.151,-0.203,0.215,-0.012,0.052,0.463,0.564,0.416,0.332,0.028,0.313,-0.235,-0.318
0.378,0.283,0.129,-0.154,-0.206,0.219,-0.013,0.049,0.464,0.569,0.422,0.336,0.029,0.315,-0.237,-0.319
0.379,0.291,0.135,-0.157,-0.213,0.225,-0.011,0.048,0.469,0.574,0.428,0.342,0.034,0.32,-0.237,-0.32
0.38,0.294,0.142,-0.153,-0.218,0.225,-0.005,0.049,0.478,0.583,0.436,0.347,0.037,0.325,-0.234,-0.322
0.381,0.29,0.142,-0.148,-0.216,0.22,-0.004,0.049,0.481,0.589,0.442,0.351,0.039,0.325,-0.229,-0.326
0.382,0.293,0.145,-0.148,-0.219,0.221,-0.002,0.054,0.483,0.595,0.448,0.356,0.041,0.327,-0.226,-0.329
0.383,0.298,0.149,-0.149,-0.224,0.225,-0.001,0.053,0.488,0.599,0.453,0.36,0.043,0.332,-0.228,-0.329
0.384,0.301,0.152,-0.15,-0.227,0.226,0.001,0.05,0.492,0.603,0.457,0.365,0.045,0.336,-0.229,-0.329
0.385,0.297,0.15,-0.148,-0.224,0.224,0.001,0.049,0.494,0.609,0.463,0.371,0.049,0.339,-0.225,-0.333
0.386,0.294,0.151,-0.144,-0.223,0.22,0.003,0.051,0.5,0.617,0.47,0.377,0.051,0.34,-0.221,-0.336
0.387,0.303,0.161,-0.142,-0.232,0.223,0.009,0.057,0.512,0.629,0.481,0.383,0.056,0.345,-0.22,-0.339
0.388,0.304,0.161,-0.144,-0.233,0.225,0.009,0.054,0.512,0.632,0.484,0.386,0.056,0.346,-0.217,-0.341
0.389,0.304,0.158,-0.147,-0.231,0.226,0.005,0.051,0.514,0.636,0.488,0.388,0.056,0.347,-0.217,-0.342
0.39,0.312,0.162,-0.151,-0.237,0.233,0.005,0.051,0.521,0.644,0.497,0.394,0.061,0.352,-0.217,-0.344
0.391,0.317,0.165,-0.152,-0.24,0.235,0.006,0.049,0.523,0.648,0.502,0.4,0.063,0.355,-0.212,-0.345
0.392,0.315,0.166,-0.15,-0.24,0.233,0.007,0.052,0.532,0.658,0.511,0.405,0.067,0.359,-0.21,-0.348
0.393,0.314,0.166,-0.148,-0.239,0.232,0.009,0.056,0.537,0.668,0.517,0.409,0.068,0.361,-0.21,-0.352
0.394,0.322,0.168,-0.154,-0.244,0.238,0.006,0.051,0.539,0.672,0.52,0.412,0.069,0.365,-0.21,-0.352
0.395,0.329,0.172,-0.158,-0.25,0.243,0.007,0.049,0.543,0.678,0.527,0.416,0.072,0.371,-0.209,-0.354
0.396,0.329,0.171,-0.159,-0.249,0.244,0.006,0.051,0.545,0.684,0.534,0.424,0.074,0.374,-0.206,-0.356
0.397,0.333,0.172,-0.161,-0.253,0.247,0.006,0.053,0.551,0.694,0.542,0.43,0.079,0.378,-0.206,-0.358
0.398,0.331,0.175,-0.155,-0.253,0.243,0.01,0.053,0.559,0.704,0.55,0.435,0.081,0.381,-0.205,-0.361
0.399,0.331,0.175,-0.157,-0.253,0.244,0.009,0.055,0.567,0.712,0.558,0.444,0.085,0.386,-0.207,-0.364
0.4,0.339,0.183,-0.156,-0.261,0.248,0.013,0.054,0.572,0.719,0.567,0.449,0.09,0.391,-0.205,-0.365
0.401,0.339,0.184,-0.155,-0.262,0.248,0.014,0.052,0.576,0.723,0.573,0.454,0.091,0.394,-0.203,-0.367
0.402,0.337,0.18,-0.157,-0.259,0.247,0.012,0.051,0.581,0.73,0.58,0.461,0.095,0.398,-0.201,-0.369
0.403,0.34,0.186,-0.154,-0.263,0.247,0.016,0.047,0.584,0.737,0.586,0.467,0.098,0.401,-0.197,-0.373
0.404,0.337,0.183,-0.154,-0.261,0.246,0.015,0.048,0.588,0.743,0.591,0.472,0.099,0.403,-0.196,-0.376
0.405,0.341,0.189,-0.152,-0.265,0.247,0.018,0.05,0.595,0.75,0.6,0.479,0.102,0.407,-0.193,-0.378
0.406,0.35,0.199,-0.151,-0.275,0.251,0.024,0.053,0.601,0.759,0.609,0.486,0.107,0.413,-0.194,-0.381
0.407,0.349,0.201,-0.148,-0.275,0.249,0.026,0.054,0.609,0.766,0.617,0.492,0.111,0.415,-0.187,-0.385
0.408,0.358,0.205,-0.154,-0.282,0.257,0.025,0.05,0.613,0.775,0.625,0.501,0.116,0.423,-0.188,-0.385
0.409,0.368,0.21,-0.159,-0.289,0.264,0.025,0.049,0.614,0.782,0.632,0.508,0.122,0.431,-0.189,-0.386
0.41,0.366,0.211,-0.156,-0.289,0.262,0.028,0.049,0.619,0.787,0.637,0.513,0.124,0.434,-0.184,-0.388
0.411,0.366,0.213,-0.153,-0.289,0.26,0.03,0.051,0.627,0.794,0.644,0.519,0.126,0.435,-0.18,-0.391
0.412,0.368,0.217,-0.151,-0.292,0.26,0.033,0.05,0.631,0.801,0.653,0.525,0.131,0.441,-0.175,-0.394
0.413,0.373,0.222,-0.152,-0.297,0.264,0.035,0.046,0.634,0.807,0.659,0.532,0.134,0.446,-0.176,-0.395
0.414,0.378,0.227,-0.152,-0.302,0.265,0.037,0.045,0.64,0.816,0.667,0.54,0.137,0.451,-0.172,-0.397
0.415,0.377,0.226,-0.151,-0.301,0.265,0.037,0.047,0.646,0.822,0.675,0.548,0.142,0.454,-0.168,-0.401
0.416,0.373,0.225,-0.149,-0.299,0.262,0.038,0.047,0.647,0.826,0.679,0.552,0.144,0.454,-0.164,-0.405
0.417,0.38,0.229,-0.151,-0.304,0.266,0.039,0.045,0.65,0.833,0.686,0.557,0.148,0.46,-0.164,-0.405
0.418,0.39,0.237,-0.152,-0.314,0.272,0.043,0.046,0.656,0.839,0.695,0.567,0.152,0.468,-0.162,-0.406
0.419,0.394,0.241,-0.152,-0.318,0.274,0.044,0.043,0.659,0.843,0.701,0.574,0.155,0.471,-0.161,-0.407
0.42,0.398,0.245,-0.153,-0.322,0.276,0.046,0.035,0.661,0.848,0.707,0.582,0.162,0.477,-0.161,-0.408
0.421,0.405,0.253,-0.152,-0.329,0.279,0.051,0.036,0.667,0.854,0.714,0.592,0.169,0.485,-0.153,-0.411
0.422,0.405,0.253,-0.151,-0.329,0.279,0.051,0.038,0.668,0.859,0.72,0.597,0.172,0.489,-0.153,-0.411
0.423,0.405,0.258,-0.147,-0.331,0.277,0.055,0.038,0.673,0.864,0.724,0.602,0.172,0.489,-0.147,-0.413
0.424,0.408,0.264,-0.145,-0.336,0.277,0.059,0.036,0.678,0.871,0.73,0.612,0.176,0.492,-0.141,-0.417
0.425,0.415,0.267,-0.149,-0.341,0.282,0.059,0.028,0.677,0.875,0.736,0.619,0.18,0.497,-0.141,-0.418
0.426,0.422,0.272,-0.151,-0.347,0.287,0.06,0.029,0.682,0.882,0.743,0.628,0.185,0.506,-0.141,-0.419
0.427,0.422,0.276,-0.147,-0.349,0.285,0.065,0.033,0.686,0.889,0.749,0.636,0.192,0.513,-0.138,-0.42
0.428,0.423,0.28,-0.143,-0.351,0.283,0.069,0.031,0.689,0.892,0.755,0.643,0.195,0.515,-0.134,-0.42
0.429,0.426,0.285,-0.142,-0.356,0.285,0.071,0.028,0.692,0.896,0.76,0.651,0.201,0.521,-0.134,-0.421
0.43,0.435,0.291,-0.144,-0.363,0.29,0.074,0.023,0.692,0.899,0.763,0.656,0.203,0.527,-0.131,-0.42
0.431,0.439,0.295,-0.144,-0.367,0.292,0.075,0.022,0.696,0.903,0.768,0.663,0.209,0.533,-0.128,-0.421
0.432,0.437,0.297,-0.141,-0.367,0.289,0.078,0.018,0.697,0.908,0.773,0.671,0.214,0.537,-0.122,-0.423
0.433,0.439,0.301,-0.138,-0.37,0.289,0.082,0.019,0.7,0.912,0.778,0.677,0.219,0.54,-0.115,-0.424
0.434,0.442,0.305,-0.137,-0.373,0.29,0.084,0.013,0.699,0.913,0.783,0.685,0.223,0.545,-0.112,-0.424
0.435,0.446,0.314,-0.133,-0.38,0.289,0.09,0.011,0.698,0.914,0.786,0.692,0.226,0.55,-0.107,-0.427
0.436,0.445,0.32,-0.126,-0.382,0.286,0.097,0.011,0.699,0.916,0.791,0.699,0.231,0.553,-0.101,-0.428
0.437,0.447,0.32,-0.128,-0.383,0.287,0.096,-0.002,0.696,0.916,0.794,0.707,0.235,0.557,-0.098,-0.428
0.438,0.456,0.328,-0.129,-0.392,0.293,0.1,0.004,0.699,0.919,0.799,0.716,0.242,0.566,-0.097,-0.429
0.439,0.457,0.331,-0.127,-0.394,0.292,0.102,0.001,0.699,0.918,0.8,0.721,0.244,0.569,-0.097,-0.428
0.44,0.458,0.335,-0.123,-0.396,0.29,0.106,-0.003,0.699,0.919,0.803,0.727,0.249,0.573,-0.093,-0.427
0.441,0.464,0.342,-0.122,-0.403,0.293,0.11,-0.003,0.701,0.921,0.807,0.736,0.257,0.58,-0.089,-0.427
0.442,0.467,0.346,-0.121,-0.406,0.294,0.113,-0.012,0.695,0.92,0.806,0.739,0.257,0.581,-0.087,-0.427
0.443,0.47,0.353,-0.117,-0.412,0.294,0.117,-0.012,0.696,0.921,0.812,0.749,0.265,0.589,-0.082,-0.426
0.444,0.473,0.356,-0.118,-0.415,0.296,0.119,-0.013,0.695,0.922,0.816,0.757,0.272,0.595,-0.08,-0.425
0.445,0.468,0.356,-0.113,-0.412,0.29,0.122,-0.017,0.693,0.921,0.817,0.76,0.274,0.597,-0.071,-0.425
0.446,0.465,0.358,-0.107,-0.411,0.286,0.126,-0.022,0.694,0.921,0.819,0.767,0.277,0.6,-0.068,-0.427
0.447,0.472,0.361,-0.112,-0.417,0.292,0.125,-0.026,0.69,0.92,0.819,0.772,0.28,0.605,-0.073,-0.424
0.448,0.477,0.366,-0.111,-0.421,0.294,0.128,-0.025,0.691,0.92,0.82,0.776,0.283,0.609,-0.069,-0.424
0.449,0.473,0.366,-0.107,-0.42,0.291,0.13,-0.03,0.69,0.918,0.82,0.78,0.288,0.612,-0.066,-0.423
0.45,0.474,0.366,-0.109,-0.42,0.292,0.129,-0.033,0.688,0.916,0.822,0.785,0.293,0.616,-0.066,-0.422
0.451,0.481,0.375,-0.107,-0.428,0.294,0.134,-0.035,0.686,0.915,0.823,0.792,0.299,0.621,-0.065,-0.421
0.452,0.488,0.384,-0.105,-0.435,0.296,0.14,-0.039,0.684,0.914,0.824,0.797,0.304,0.625,-0.059,-0.419
0.453,0.489,0.386,-0.104,-0.438,0.296,0.141,-0.044,0.681,0.913,0.823,0.802,0.305,0.627,-0.056,-0.416
0.454,0.487,0.386,-0.102,-0.436,0.295,0.141,-0.047,0.678,0.911,0.821,0.805,0.31,0.629,-0.057,-0.413
0.455,0.487,0.392,-0.097,-0.44,0.292,0.147,-0.043,0.675,0.909,0.821,0.808,0.314,0.632,-0.053,-0.414
0.456,0.493,0.399,-0.096,-0.446,0.294,0.151,-0.048,0.671,0.903,0.817,0.81,0.315,0.634,-0.051,-0.412
0.457,0.493,0.398,-0.096,-0.446,0.294,0.151,-0.058,0.664,0.897,0.814,0.812,0.319,0.636,-0.048,-0.409
0.458,0.489,0.402,-0.088,-0.446,0.289,0.157,-0.058,0.663,0.895,0.811,0.817,0.321,0.636,-0.043,-0.409
0.459,0.488,0.402,-0.087,-0.445,0.288,0.158,-0.056,0.658,0.89,0.807,0.818,0.324,0.635,-0.041,-0.408
0.46,0.487,0.402,-0.086,-0.445,0.287,0.158,-0.062,0.653,0.885,0.804,0.818,0.325,0.637,-0.039,-0.406
0.461,0.49,0.406,-0.085,-0.448,0.288,0.161,-0.066,0.652,0.88,0.803,0.821,0.328,0.639,-0.036,-0.405
0.462,0.489,0.406,-0.083,-0.448,0.286,0.162,-0.074,0.645,0.875,0.799,0.823,0.33,0.64,-0.034,-0.402
0.463,0.495,0.416,-0.08,-0.456,0.288,0.168,-0.074,0.643,0.873,0.798,0.827,0.333,0.641,-0.03,-0.399
0.464,0.498,0.419,-0.08,-0.459,0.29,0.17,-0.071,0.639,0.87,0.797,0.831,0.336,0.644,-0.028,-0.399
0.465,0.491,0.416,-0.076,-0.454,0.284,0.17,-0.076,0.633,0.865,0.793,0.831,0.336,0.643,-0.027,-0.396
0.466,0.492,0.418,-0.075,-0.456,0.284,0.172,-0.08,0.628,0.859,0.789,0.833,0.339,0.643,-0.028,-0.394
0.467,0.492,0.417,-0.075,-0.455,0.284,0.171,-0.084,0.623,0.855,0.787,0.836,0.342,0.645,-0.025,-0.391
0.468,0.489,0.416,-0.074,-0.453,0.282,0.171,-0.089,0.614,0.846,0.78,0.834,0.342,0.644,-0.025,-0.387
0.469,0.491,0.416,-0.075,-0.454,0.283,0.171,-0.09,0.605,0.838,0.773,0.835,0.344,0.646,-0.027,-0.383
0.47,0.495,0.42,-0.075,-0.458,0.285,0.173,-0.09,0.606,0.837,0.772,0.839,0.347,0.649,-0.025,-0.381
0.471,0.495,0.423,-0.073,-0.46,0.285,0.175,-0.096,0.597,0.829,0.767,0.838,0.347,0.647,-0.024,-0.379
0.472,0.489,0.42,-0.07,-0.455,0.281,0.174,-0.097,0.588,0.821,0.762,0.837,0.347,0.643,-0.025,-0.375
0.473,0.489,0.421,-0.068,-0.456,0.279,0.177,-0.101,0.583,0.812,0.755,0.836,0.347,0.643,-0.026,-0.373
0.474,0.489,0.422,-0.067,-0.456,0.279,0.177,-0.106,0.573,0.8,0.748,0.832,0.344,0.64,-0.026,-0.369
0.475,0.488,0.421,-0.068,-0.455,0.279,0.176,-0.112,0.564,0.792,0.739,0.83,0.343,0.64,-0.026,-0.365
0.476,0.487,0.422,-0.065,-0.455,0.277,0.178,-0.113,0.558,0.785,0.733,0.83,0.344,0.64,-0.025,-0.362
0.477,0.49,0.428,-0.062,-0.46,0.277,0.182,-0.115,0.552,0.777,0.726,0.828,0.344,0.639,-0.022,-0.358
0.478,0.494,0.432,-0.063,-0.464,0.28,0.184,-0.118,0.542,0.766,0.717,0.825,0.344,0.639,-0.021,-0.354
0.479,0.491,0.425,-0.066,-0.458,0.279,0.179,-0.117,0.533,0.756,0.709,0.82,0.343,0.635,-0.025,-0.35
0.48,0.486,0.423,-0.064,-0.455,0.276,0.18,-0.118,0.525,0.749,0.701,0.816,0.343,0.634,-0.022,-0.347
0.481,0.482,0.423,-0.059,-0.453,0.271,0.182,-0.12,0.518,0.737,0.693,0.812,0.341,0.63,-0.02,-0.344
0.482,0.48,0.42,-0.06,-0.45,0.271,0.179,-0.124,0.511,0.727,0.685,0.807,0.339,0.627,-0.025,-0.34
0.483,0.479,0.419,-0.06,-0.45,0.271,0.179,-0.128,0.5,0.715,0.674,0.8,0.337,0.626,-0.025,-0.334
0.484,0.48,0.418,-0.062,-0.449,0.272,0.178,-0.138,0.489,0.701,0.663,0.795,0.335,0.625,-0.024,-0.329
0.485,0.474,0.416,-0.059,-0.446,0.267,0.179,-0.133,0.48,0.691,0.655,0.788,0.332,0.621,-0.023,-0.325
0.486,0.467,0.414,-0.053,-0.441,0.261,0.18,-0.136,0.467,0.676,0.642,0.778,0.328,0.614,-0.022,-0.321
0.487,0.467,0.413,-0.053,-0.44,0.261,0.18,-0.143,0.455,0.664,0.63,0.77,0.325,0.61,-0.025,-0.318
0.488,0.467,0.412,-0.054,-0.44,0.261,0.179,-0.138,0.449,0.654,0.622,0.764,0.324,0.605,-0.03,-0.314
0.489,0.461,0.406,-0.054,-0.433,0.258,0.176,-0.142,0.441,0.641,0.61,0.757,0.321,0.599,-0.03,-0.31
0.49,0.461,0.409,-0.052,-0.435,0.257,0.179,-0.139,0.435,0.631,0.602,0.75,0.318,0.596,-0.03,-0.306
0.491,0.464,0.413,-0.051,-0.439,0.258,0.181,-0.137,0.429,0.622,0.593,0.746,0.318,0.594,-0.033,-0.301
0.492,0.458,0.406,-0.052,-0.432,0.255,0.177,-0.141,0.418,0.61,0.579,0.736,0.312,0.587,-0.034,-0.296
0.493,0.452,0.401,-0.051,-0.426,0.252,0.175,-0.141,0.407,0.597,0.568,0.725,0.306,0.578,-0.036,-0.294
0.494,0.443,0.393,-0.051,-0.418,0.247,0.171,-0.141,0.399,0.583,0.554,0.713,0.298,0.568,-0.044,-0.29
0.495,0.435,0.387,-0.05,-0.411,0.243,0.169,-0.141,0.391,0.569,0.54,0.7,0.289,0.558,-0.045,-0.286
0.496,0.431,0.38,-0.052,-0.406,0.242,0.164,-0.144,0.38,0.554,0.526,0.686,0.282,0.551,-0.045,-0.282
0.497,0.432,0.374,-0.058,-0.403,0.245,0.159,-0.147,0.367,0.54,0.511,0.673,0.276,0.546,-0.053,-0.277
0.498,0.434,0.377,-0.058,-0.406,0.247,0.16,-0.144,0.363,0.532,0.502,0.664,0.272,0.542,-0.059,-0.272
0.499,0.426,0.372,-0.055,-0.399,0.241,0.159,-0.14,0.359,0.523,0.493,0.654,0.266,0.533,-0.061,-0.271
0.5,0.416,0.365,-0.052,-0.391,0.235,0.156,-0.141,0.349,0.509,0.479,0.64,0.258,0.523,-0.062,-0.266
0.501,0.411,0.359,-0.052,-0.386,0.233,0.153,-0.138,0.342,0.499,0.466,0.627,0.249,0.514,-0.067,-0.262
0.502,0.407,0.353,-0.055,-0.381,0.232,0.149,-0.139,0.335,0.487,0.454,0.615,0.242,0.506,-0.072,-0.258
0.503,0.402,0.346,-0.056,-0.374,0.229,0.145,-0.14,0.327,0.475,0.441,0.602,0.235,0.497,-0.077,-0.253
0.504,0.395,0.337,-0.059,-0.365,0.228,0.139,-0.133,0.322,0.466,0.428,0.588,0.228,0.488,-0.08,-0.249
0.505,0.393,0.329,-0.064,-0.361,0.229,0.133,-0.131,0.313,0.454,0.415,0.573,0.221,0.48,-0.087,-0.245
0.506,0.388,0.325,-0.064,-0.356,0.226,0.131,-0.133,0.306,0.442,0.405,0.56,0.213,0.472,-0.089,-0.241
0.507,0.378,0.318,-0.06,-0.348,0.22,0.129,-0.13,0.299,0.431,0.394,0.547,0.203,0.462,-0.092,-0.239
0.508,0.371,0.313,-0.059,-0.343,0.216,0.127,-0.124,0.294,0.421,0.381,0.532,0.194,0.453,-0.096,-0.236
0.509,0.372,0.312,-0.061,-0.342,0.217,0.125,-0.123,0.29,0.413,0.37,0.522,0.188,0.447,-0.099,-0.234
0.51,0.366,0.303,-0.064,-0.335,0.215,0.119,-0.125,0.282,0.403,0.358,0.511,0.179,0.438,-0.105,-0.229
0.511,0.359,0.297,-0.062,-0.328,0.211,0.117,-0.121,0.276,0.392,0.347,0.498,0.171,0.429,-0.108,-0.226
0.512,0.357,0.294,-0.063,-0.326,0.21,0.116,-0.118,0.273,0.384,0.339,0.488,0.163,0.421,-0.116,-0.222
0.513,0.349,0.285,-0.065,-0.318,0.208,0.11,-0.118,0.266,0.372,0.325,0.475,0.152,0.411,-0.121,-0.219
0.514,0.344,0.279,-0.066,-0.311,0.205,0.106,-0.118,0.258,0.362,0.315,0.464,0.145,0.404,-0.123,-0.215
0.515,0.34,0.274,-0.067,-0.306,0.203,0.103,-0.118,0.251,0.353,0.304,0.451,0.139,0.397,-0.124,-0.212
0.516,0.335,0.268,-0.068,-0.301,0.202,0.1,-0.116,0.245,0.341,0.292,0.435,0.131,0.389,-0.13,-0.209
0.517,0.335,0.264,-0.071,-0.299,0.203,0.097,-0.111,0.241,0.335,0.284,0.425,0.126,0.384,-0.133,-0.204
0.518,0.333,0.258,-0.075,-0.295,0.205,0.091,-0.117,0.234,0.323,0.272,0.412,0.118,0.377,-0.133,-0.201
0.519,0.319,0.246,-0.073,-0.282,0.196,0.086,-0.117,0.226,0.313,0.26,0.397,0.11,0.367,-0.141,-0.198
0.52,0.313,0.242,-0.071,-0.278,0.193,0.086,-0.111,0.225,0.307,0.253,0.386,0.104,0.361,-0.144,-0.196
0.521,0.319,0.243,-0.076,-0.281,0.198,0.084,-0.111,0.22,0.298,0.243,0.376,0.1,0.356,-0.146,-0.192
0.522,0.315,0.239,-0.076,-0.278,0.196,0.082,-0.107,0.215,0.289,0.234,0.366,0.096,0.35,-0.15,-0.189
0.523,0.305,0.231,-0.074,-0.268,0.19,0.079,-0.113,0.208,0.278,0.222,0.355,0.086,0.342,-0.16,-0.185
0.524,0.295,0.222,-0.073,-0.259,0.184,0.074,-0.111,0.199,0.268,0.211,0.344,0.078,0.334,-0.165,-0.182
0.525,0.295,0.219,-0.077,-0.258,0.187,0.071,-0.112,0.196,0.261,0.202,0.338,0.072,0.331,-0.171,-0.179
0.526,0.29,0.211,-0.079,-0.251,0.185,0.066,-0.117,0.191,0.254,0.195,0.328,0.068,0.325,-0.176,-0.175
0.527,0.281,0.205,-0.076,-0.243,0.179,0.065,-0.095,0.192,0.249,0.19,0.32,0.064,0.318,-0.167,-0.177
0.528,0.284,0.203,-0.082,-0.243,0.184,0.06,-0.097,0.191,0.243,0.181,0.311,0.058,0.314,-0.173,-0.175
0.529,0.286,0.201,-0.086,-0.243,0.186,0.058,-0.1,0.185,0.235,0.172,0.3,0.051,0.307,-0.186,-0.17
0.53,0.282,0.197,-0.086,-0.239,0.184,0.055,-0.097,0.182,0.231,0.166,0.294,0.046,0.3,-0.187,-0.169
0.531,0.274,0.189,-0.086,-0.231,0.179,0.051,-0.099,0.178,0.224,0.159,0.287,0.042,0.293,-0.185,-0.167
0.532,0.267,0.182,-0.084,-0.225,0.175,0.049,-0.095,0.172,0.215,0.149,0.276,0.036,0.287,-0.19,-0.165
0.533,0.267,0.179,-0.088,-0.223,0.178,0.045,-0.09,0.171,0.212,0.144,0.267,0.032,0.283,-0.197,-0.163
0.534,0.263,0.174,-0.089,-0.218,0.176,0.043,-0.087,0.17,0.207,0.14,0.258,0.025,0.275,-0.202,-0.161
0.535,0.258,0.168,-0.089,-0.212,0.174,0.04,-0.092,0.162,0.2,0.129,0.248,0.02,0.269,-0.204,-0.158
0.536,0.253,0.163,-0.09,-0.207,0.172,0.036,-0.088,0.161,0.196,0.124,0.241,0.016,0.265,-0.203,-0.155
0.537,0.254,0.162,-0.093,-0.208,0.174,0.034,-0.085,0.161,0.194,0.119,0.237,0.013,0.26,-0.206,-0.154
0.538,0.255,0.159,-0.097,-0.206,0.176,0.03,-0.085,0.158,0.188,0.112,0.229,0.008,0.257,-0.215,-0.151
0.539,0.246,0.151,-0.096,-0.199,0.172,0.028,-0.085,0.153,0.182,0.105,0.219,0.001,0.25,-0.219,-0.149
0.54,0.245,0.149,-0.097,-0.198,0.172,0.026,-0.084,0.151,0.177,0.101,0.213,-0.002,0.249,-0.218,-0.148
0.541,0.246,0.148,-0.098,-0.197,0.172,0.025,-0.079,0.152,0.175,0.097,0.209,-0.005,0.246,-0.221,-0.146
0.542,0.243,0.145,-0.099,-0.194,0.172,0.023,-0.079,0.148,0.172,0.092,0.202,-0.009,0.242,-0.225,-0.145
0.543,0.241,0.142,-0.099,-0.191,0.17,0.021,-0.081,0.144,0.165,0.086,0.195,-0.013,0.238,-0.224,-0.144
0.544,0.241,0.141,-0.102,-0.191,0.172,0.019,-0.079,0.143,0.162,0.082,0.193,-0.016,0.236,-0.222,-0.143
0.545,0.241,0.136,-0.105,-0.188,0.173,0.015,-0.076,0.143,0.16,0.081,0.189,-0.016,0.235,-0.23,-0.142
0.546,0.237,0.133,-0.104,-0.184,0.171,0.014,-0.075,0.141,0.155,0.078,0.184,-0.019,0.231,-0.23,-0.141
0.547,0.237,0.133,-0.105,-0.185,0.172,0.013,-0.073,0.138,0.153,0.074,0.178,-0.023,0.229,-0.229,-0.141
0.548,0.232,0.127,-0.105,-0.179,0.169,0.011,-0.071,0.138,0.151,0.072,0.172,-0.03,0.221,-0.233,-0.141
0.549,0.229,0.124,-0.104,-0.176,0.167,0.01,-0.068,0.137,0.148,0.07,0.168,-0.035,0.214,-0.237,-0.141
0.55,0.229,0.124,-0.105,-0.176,0.168,0.009,-0.073,0.135,0.143,0.066,0.163,-0.037,0.214,-0.24,-0.139
0.551,0.228,0.126,-0.103,-0.176,0.166,0.011,-0.071,0.137,0.145,0.066,0.162,-0.038,0.214,-0.238,-0.137
0.552,0.227,0.126,-0.102,-0.176,0.165,0.012,-0.064,0.136,0.142,0.061,0.156,-0.041,0.211,-0.236,-0.138
0.553,0.223,0.118,-0.104,-0.171,0.164,0.007,-0.066,0.134,0.138,0.055,0.15,-0.044,0.206,-0.239,-0.137
0.554,0.223,0.117,-0.106,-0.169,0.165,0.005,-0.066,0.132,0.136,0.054,0.146,-0.045,0.203,-0.243,-0.136
0.555,0.221,0.116,-0.105,-0.168,0.164,0.005,-0.065,0.132,0.136,0.052,0.142,-0.049,0.202,-0.242,-0.134
0.556,0.22,0.114,-0.105,-0.167,0.163,0.004,-0.065,0.132,0.134,0.049,0.14,-0.05,0.201,-0.24,-0.134
0.557,0.224,0.118,-0.105,-0.171,0.165,0.006,-0.062,0.132,0.133,0.049,0.139,-0.05,0.2,-0.242,-0.135
0.558,0.221,0.116,-0.104,-0.169,0.163,0.006,-0.059,0.134,0.135,0.05,0.138,-0.051,0.2,-0.246,-0.132
0.559,0.217,0.111,-0.106,-0.164,0.162,0.002,-0.059,0.132,0.131,0.047,0.133,-0.054,0.196,-0.25,-0.133
0.56,0.218,0.109,-0.109,-0.163,0.164,0,-0.058,0.132,0.13,0.045,0.13,-0.055,0.196,-0.253,-0.133
0.561,0.216,0.105,-0.111,-0.16,0.164,-0.003,-0.057,0.132,0.131,0.045,0.128,-0.054,0.197,-0.253,-0.132
0.562,0.213,0.102,-0.111,-0.158,0.162,-0.004,-0.059,0.131,0.129,0.043,0.126,-0.057,0.193,-0.254,-0.133
0.563,0.212,0.1,-0.113,-0.155,0.163,-0.007,-0.057,0.133,0.131,0.043,0.125,-0.057,0.194,-0.256,-0.133
0.564,0.213,0.099,-0.115,-0.155,0.164,-0.008,-0.052,0.135,0.133,0.044,0.124,-0.057,0.195,-0.256,-0.133
0.565,0.213,0.099,-0.115,-0.155,0.164,-0.008,-0.059,0.132,0.131,0.042,0.122,-0.057,0.194,-0.256,-0.132
0.566,0.208,0.093,-0.115,-0.15,0.162,-0.011,-0.053,0.133,0.133,0.043,0.12,-0.059,0.192,-0.26,-0.134
0.567,0.205,0.091,-0.114,-0.148,0.16,-0.011,-0.051,0.133,0.134,0.043,0.121,-0.06,0.189,-0.259,-0.134
0.568,0.205,0.09,-0.116,-0.147,0.161,-0.013,-0.048,0.133,0.134,0.043,0.121,-0.06,0.189,-0.258,-0.134
0.569,0.206,0.091,-0.116,-0.148,0.161,-0.012,-0.044,0.135,0.134,0.045,0.12,-0.063,0.189,-0.258,-0.134
0.57,0.211,0.093,-0.118,-0.152,0.166,-0.013,-0.047,0.131,0.133,0.043,0.117,-0.066,0.189,-0.263,-0.131
0.571,0.212,0.093,-0.118,-0.152,0.166,-0.013,-0.046,0.131,0.134,0.043,0.117,-0.066,0.188,-0.265,-0.131
0.572,0.206,0.092,-0.114,-0.149,0.161,-0.011,-0.051,0.134,0.135,0.044,0.117,-0.067,0.185,-0.258,-0.134
0.573,0.204,0.09,-0.114,-0.147,0.16,-0.012,-0.046,0.138,0.135,0.044,0.116,-0.07,0.182,-0.257,-0.135
0.574,0.206,0.088,-0.118,-0.146,0.162,-0.015,-0.051,0.136,0.132,0.042,0.116,-0.071,0.183,-0.259,-0.134
0.575,0.209,0.09,-0.119,-0.149,0.165,-0.015,-0.053,0.138,0.132,0.043,0.117,-0.072,0.185,-0.261,-0.135
0.576,0.207,0.09,-0.116,-0.148,0.162,-0.013,-0.051,0.138,0.132,0.043,0.117,-0.072,0.183,-0.261,-0.134
0.577,0.206,0.09,-0.116,-0.147,0.161,-0.013,-0.048,0.14,0.134,0.044,0.117,-0.072,0.181,-0.26,-0.136
0.578,0.21,0.093,-0.117,-0.151,0.164,-0.011,-0.045,0.144,0.138,0.047,0.119,-0.071,0.182,-0.263,-0.135
0.579,0.209,0.09,-0.119,-0.15,0.165,-0.014,-0.048,0.143,0.137,0.046,0.117,-0.072,0.181,-0.261,-0.136
0.58,0.207,0.085,-0.121,-0.145,0.165,-0.018,-0.046,0.143,0.137,0.045,0.116,-0.074,0.18,-0.264,-0.138
0.581,0.201,0.083,-0.119,-0.141,0.161,-0.018,-0.046,0.143,0.137,0.046,0.116,-0.075,0.18,-0.268,-0.137
0.582,0.205,0.086,-0.119,-0.145,0.163,-0.017,-0.047,0.145,0.14,0.051,0.118,-0.072,0.185,-0.265,-0.136
0.583,0.21,0.088,-0.121,-0.149,0.166,-0.017,-0.048,0.145,0.14,0.051,0.118,-0.072,0.185,-0.264,-0.137
0.584,0.206,0.086,-0.121,-0.146,0.164,-0.018,-0.048,0.145,0.139,0.051,0.115,-0.075,0.184,-0.26,-0.137
0.585,0.208,0.084,-0.124,-0.146,0.167,-0.02,-0.047,0.144,0.14,0.05,0.116,-0.075,0.185,-0.263,-0.137
0.586,0.207,0.083,-0.125,-0.145,0.167,-0.021,-0.045,0.142,0.139,0.049,0.115,-0.077,0.184,-0.266,-0.137
0.587,0.209,0.085,-0.124,-0.147,0.167,-0.019,-0.043,0.147,0.141,0.051,0.117,-0.075,0.186,-0.265,-0.137
0.588,0.207,0.083,-0.125,-0.145,0.167,-0.021,-0.042,0.148,0.142,0.053,0.118,-0.073,0.185,-0.268,-0.138
0.589,0.203,0.078,-0.125,-0.14,0.164,-0.024,-0.041,0.148,0.141,0.053,0.117,-0.074,0.184,-0.271,-0.138
0.59,0.207,0.081,-0.126,-0.144,0.167,-0.022,-0.046,0.147,0.142,0.054,0.117,-0.076,0.186,-0.268,-0.138
0.591,0.208,0.079,-0.129,-0.143,0.169,-0.025,-0.048,0.145,0.141,0.054,0.117,-0.075,0.187,-0.271,-0.137
0.592,0.205,0.081,-0.124,-0.143,0.166,-0.022,-0.042,0.15,0.142,0.056,0.118,-0.077,0.185,-0.27,-0.14
0.593,0.203,0.083,-0.119,-0.142,0.161,-0.018,-0.039,0.155,0.147,0.059,0.12,-0.079,0.182,-0.266,-0.141
0.594,0.205,0.08,-0.126,-0.142,0.166,-0.023,-0.043,0.151,0.145,0.058,0.119,-0.078,0.183,-0.273,-0.14
0.595,0.203,0.077,-0.126,-0.141,0.165,-0.025,-0.041,0.151,0.144,0.058,0.118,-0.08,0.181,-0.275,-0.141
0.596,0.203,0.078,-0.126,-0.141,0.165,-0.024,-0.033,0.159,0.15,0.062,0.121,-0.079,0.182,-0.273,-0.144
0.597,0.208,0.08,-0.128,-0.144,0.168,-0.024,-0.035,0.158,0.151,0.063,0.122,-0.076,0.184,-0.271,-0.144
0.598,0.207,0.079,-0.129,-0.143,0.168,-0.025,-0.035,0.157,0.151,0.064,0.123,-0.076,0.186,-0.272,-0.142
0.599,0.211,0.082,-0.13,-0.146,0.171,-0.024,-0.035,0.159,0.152,0.065,0.125,-0.075,0.186,-0.272,-0.144
0.6,0.202,0.077,-0.124,-0.14,0.164,-0.024,-0.035,0.159,0.152,0.064,0.121,-0.08,0.18,-0.273,-0.144
0.601,0.198,0.075,-0.122,-0.137,0.16,-0.024,-0.035,0.16,0.152,0.065,0.117,-0.084,0.179,-0.277,-0.142
0.602,0.204,0.077,-0.127,-0.141,0.166,-0.025,-0.039,0.159,0.151,0.065,0.116,-0.083,0.182,-0.276,-0.143
0.603,0.204,0.076,-0.128,-0.14,0.166,-0.025,-0.041,0.156,0.151,0.065,0.117,-0.082,0.182,-0.274,-0.144
0.604,0.206,0.077,-0.129,-0.141,0.168,-0.026,-0.037,0.159,0.152,0.065,0.116,-0.082,0.183,-0.274,-0.146
0.605,0.21,0.076,-0.134,-0.143,0.172,-0.029,-0.036,0.16,0.15,0.067,0.116,-0.083,0.184,-0.274,-0.146
0.606,0.209,0.073,-0.135,-0.141,0.172,-0.03,-0.035,0.161,0.153,0.069,0.118,-0.081,0.184,-0.28,-0.146
0.607,0.205,0.073,-0.133,-0.139,0.17,-0.03,-0.035,0.164,0.155,0.07,0.119,-0.08,0.182,-0.281,-0.147
0.608,0.207,0.075,-0.132,-0.141,0.17,-0.028,-0.032,0.165,0.156,0.072,0.12,-0.081,0.182,-0.278,-0.147
0.609,0.206,0.074,-0.133,-0.141,0.17,-0.029,-0.031,0.17,0.16,0.074,0.122,-0.078,0.185,-0.278,-0.148
0.61,0.204,0.073,-0.131,-0.139,0.168,-0.029,-0.033,0.168,0.161,0.072,0.121,-0.08,0.184,-0.279,-0.148
0.611,0.203,0.071,-0.131,-0.137,0.167,-0.03,-0.035,0.166,0.159,0.071,0.118,-0.084,0.181,-0.28,-0.148
0.612,0.202,0.071,-0.131,-0.136,0.166,-0.029,-0.033,0.167,0.161,0.071,0.118,-0.083,0.18,-0.275,-0.149
0.613,0.204,0.073,-0.131,-0.138,0.168,-0.029,-0.031,0.169,0.164,0.074,0.119,-0.082,0.182,-0.278,-0.148
0.614,0.203,0.07,-0.134,-0.136,0.169,-0.033,-0.035,0.167,0.162,0.072,0.117,-0.085,0.183,-0.28,-0.146
0.615,0.205,0.071,-0.134,-0.138,0.17,-0.032,-0.035,0.166,0.16,0.07,0.115,-0.087,0.181,-0.275,-0.147
0.616,0.205,0.071,-0.134,-0.138,0.17,-0.032,-0.035,0.167,0.16,0.07,0.114,-0.089,0.179,-0.276,-0.149
0.617,0.203,0.071,-0.132,-0.138,0.168,-0.03,-0.033,0.169,0.161,0.071,0.114,-0.088,0.18,-0.279,-0.148
0.618,0.207,0.076,-0.131,-0.141,0.169,-0.027,-0.035,0.168,0.16,0.07,0.114,-0.087,0.18,-0.274,-0.147
0.619,0.207,0.076,-0.131,-0.141,0.17,-0.028,-0.036,0.166,0.158,0.068,0.112,-0.089,0.18,-0.274,-0.146
0.62,0.206,0.077,-0.129,-0.141,0.168,-0.025,-0.04,0.167,0.16,0.068,0.114,-0.089,0.181,-0.276,-0.147
0.621,0.205,0.079,-0.127,-0.141,0.166,-0.024,-0.044,0.167,0.161,0.069,0.116,-0.09,0.181,-0.274,-0.145
0.622,0.201,0.077,-0.124,-0.139,0.163,-0.024,-0.032,0.167,0.162,0.068,0.114,-0.091,0.179,-0.273,-0.146
0.623,0.2,0.077,-0.123,-0.139,0.162,-0.023,-0.035,0.165,0.161,0.067,0.114,-0.091,0.179,-0.269,-0.147
0.624,0.206,0.08,-0.127,-0.142,0.167,-0.024,-0.035,0.169,0.162,0.069,0.117,-0.087,0.184,-0.273,-0.146
0.625,0.206,0.08,-0.127,-0.143,0.167,-0.023,-0.037,0.169,0.164,0.069,0.119,-0.087,0.185,-0.273,-0.147
0.626,0.203,0.08,-0.123,-0.141,0.163,-0.021,-0.04,0.165,0.16,0.066,0.115,-0.09,0.181,-0.269,-0.147
0.627,0.206,0.085,-0.121,-0.145,0.164,-0.018,-0.034,0.167,0.16,0.067,0.114,-0.091,0.179,-0.271,-0.147
0.628,0.209,0.085,-0.124,-0.147,0.167,-0.019,-0.042,0.167,0.161,0.068,0.117,-0.088,0.18,-0.27,-0.148
0.629,0.206,0.083,-0.123,-0.144,0.165,-0.021,-0.039,0.171,0.164,0.069,0.119,-0.086,0.179,-0.27,-0.149
0.63,0.205,0.082,-0.123,-0.143,0.165,-0.021,-0.032,0.172,0.164,0.07,0.119,-0.086,0.178,-0.269,-0.15
0.631,0.206,0.083,-0.123,-0.144,0.165,-0.021,-0.035,0.171,0.163,0.07,0.119,-0.086,0.177,-0.27,-0.15
0.632,0.207,0.084,-0.124,-0.145,0.166,-0.02,-0.037,0.17,0.163,0.068,0.12,-0.087,0.178,-0.272,-0.149
0.633,0.208,0.083,-0.126,-0.145,0.168,-0.022,-0.035,0.172,0.163,0.069,0.12,-0.086,0.179,-0.271,-0.15
0.634,0.208,0.081,-0.127,-0.144,0.168,-0.023,-0.033,0.173,0.164,0.069,0.117,-0.086,0.178,-0.272,-0.15
0.635,0.202,0.076,-0.125,-0.139,0.164,-0.025,-0.033,0.171,0.162,0.067,0.115,-0.088,0.175,-0.273,-0.15
0.636,0.201,0.074,-0.126,-0.137,0.164,-0.026,-0.036,0.173,0.163,0.068,0.115,-0.087,0.175,-0.273,-0.15
0.637,0.211,0.081,-0.131,-0.145,0.171,-0.025,-0.033,0.174,0.166,0.07,0.119,-0.083,0.179,-0.273,-0.15
0.638,0.218,0.088,-0.13,-0.153,0.174,-0.021,-0.026,0.175,0.167,0.07,0.121,-0.081,0.18,-0.27,-0.15
0.639,0.218,0.087,-0.131,-0.152,0.175,-0.022,-0.028,0.175,0.167,0.069,0.117,-0.084,0.177,-0.271,-0.15
0.64,0.217,0.085,-0.133,-0.15,0.175,-0.024,-0.032,0.17,0.165,0.067,0.115,-0.087,0.175,-0.272,-0.149
0.641,0.216,0.086,-0.131,-0.151,0.174,-0.023,-0.032,0.17,0.163,0.067,0.116,-0.087,0.177,-0.272,-0.148
0.642,0.216,0.089,-0.127,-0.152,0.172,-0.019,-0.03,0.171,0.163,0.066,0.116,-0.086,0.177,-0.273,-0.148
0.643,0.216,0.088,-0.128,-0.152,0.172,-0.02,-0.034,0.168,0.162,0.066,0.116,-0.087,0.177,-0.273,-0.149
0.644,0.215,0.09,-0.126,-0.152,0.171,-0.018,-0.032,0.168,0.161,0.064,0.114,-0.089,0.174,-0.266,-0.15
0.645,0.21,0.089,-0.121,-0.149,0.166,-0.016,-0.03,0.167,0.16,0.061,0.111,-0.092,0.172,-0.262,-0.15
0.646,0.208,0.085,-0.123,-0.146,0.167,-0.019,-0.032,0.167,0.16,0.062,0.113,-0.089,0.173,-0.268,-0.149
0.647,0.215,0.092,-0.123,-0.153,0.17,-0.015,-0.031,0.165,0.158,0.06,0.112,-0.089,0.175,-0.266,-0.148
0.648,0.216,0.092,-0.123,-0.153,0.17,-0.015,-0.034,0.164,0.156,0.059,0.111,-0.09,0.177,-0.265,-0.147
0.649,0.213,0.09,-0.123,-0.151,0.169,-0.017,-0.036,0.163,0.155,0.057,0.111,-0.089,0.177,-0.266,-0.145
0.65,0.212,0.091,-0.121,-0.151,0.167,-0.015,-0.037,0.163,0.156,0.057,0.111,-0.088,0.177,-0.264,-0.147
0.651,0.212,0.089,-0.124,-0.15,0.169,-0.018,-0.037,0.163,0.155,0.057,0.111,-0.086,0.177,-0.262,-0.147
0.652,0.212,0.09,-0.122,-0.15,0.167,-0.016,-0.036,0.163,0.152,0.055,0.111,-0.088,0.176,-0.264,-0.147
0.653,0.21,0.09,-0.12,-0.15,0.166,-0.015,-0.038,0.163,0.152,0.056,0.112,-0.088,0.175,-0.266,-0.147
0.654,0.213,0.093,-0.12,-0.153,0.167,-0.013,-0.04,0.164,0.153,0.056,0.112,-0.088,0.178,-0.256,-0.147
0.655,0.208,0.09,-0.118,-0.148,0.163,-0.014,-0.037,0.165,0.153,0.054,0.11,-0.089,0.177,-0.259,-0.146
0.656,0.205,0.086,-0.119,-0.145,0.163,-0.017,-0.039,0.161,0.151,0.051,0.11,-0.09,0.177,-0.268,-0.145
0.657,0.207,0.086,-0.121,-0.146,0.164,-0.018,-0.043,0.159,0.149,0.051,0.111,-0.087,0.181,-0.266,-0.145
0.658,0.203,0.083,-0.121,-0.143,0.163,-0.019,-0.043,0.161,0.149,0.052,0.111,-0.087,0.18,-0.262,-0.145
0.659,0.201,0.082,-0.119,-0.141,0.161,-0.019,-0.047,0.158,0.146,0.049,0.111,-0.089,0.179,-0.261,-0.146
0.66,0.206,0.087,-0.119,-0.146,0.163,-0.016,-0.045,0.157,0.145,0.048,0.11,-0.089,0.179,-0.261,-0.145
0.661,0.215,0.097,-0.118,-0.156,0.167,-0.011,-0.04,0.159,0.148,0.049,0.112,-0.087,0.182,-0.262,-0.144
0.662,0.215,0.098,-0.118,-0.156,0.167,-0.011,-0.038,0.157,0.146,0.049,0.114,-0.085,0.183,-0.261,-0.144
0.663,0.213,0.095,-0.118,-0.154,0.166,-0.012,-0.043,0.157,0.143,0.045,0.109,-0.088,0.182,-0.257,-0.144
0.664,0.214,0.096,-0.119,-0.154,0.167,-0.011,-0.048,0.153,0.142,0.043,0.107,-0.09,0.18,-0.259,-0.143
0.665,0.217,0.102,-0.116,-0.159,0.167,-0.007,-0.043,0.153,0.143,0.044,0.11,-0.088,0.18,-0.26,-0.145
0.666,0.214,0.105,-0.109,-0.16,0.162,-0.002,-0.04,0.157,0.147,0.045,0.113,-0.086,0.18,-0.259,-0.144
0.667,0.208,0.099,-0.11,-0.153,0.159,-0.005,-0.044,0.15,0.142,0.04,0.108,-0.089,0.178,-0.26,-0.142
0.668,0.203,0.095,-0.109,-0.148,0.157,-0.007,-0.046,0.148,0.139,0.036,0.103,-0.092,0.175,-0.257,-0.142
0.669,0.204,0.095,-0.11,-0.149,0.157,-0.007,-0.048,0.148,0.139,0.036,0.102,-0.093,0.175,-0.256,-0.142
0.67,0.211,0.102,-0.11,-0.156,0.161,-0.004,-0.048,0.147,0.138,0.037,0.103,-0.091,0.174,-0.255,-0.142
0.671,0.211,0.102,-0.108,-0.157,0.16,-0.003,-0.045,0.149,0.139,0.037,0.103,-0.092,0.172,-0.254,-0.143
0.672,0.21,0.1,-0.111,-0.154,0.161,-0.005,-0.049,0.145,0.135,0.033,0.101,-0.095,0.172,-0.251,-0.141
0.673,0.21,0.101,-0.109,-0.155,0.16,-0.004,-0.05,0.147,0.134,0.03,0.1,-0.095,0.172,-0.25,-0.142
0.674,0.21,0.1,-0.11,-0.155,0.16,-0.005,-0.051,0.144,0.132,0.029,0.098,-0.096,0.171,-0.256,-0.141
0.675,0.209,0.099,-0.111,-0.153,0.161,-0.006,-0.05,0.142,0.131,0.028,0.098,-0.096,0.17,-0.255,-0.141
0.676,0.209,0.098,-0.112,-0.153,0.161,-0.007,-0.048,0.145,0.133,0.028,0.099,-0.096,0.169,-0.255,-0.141
0.677,0.209,0.098,-0.112,-0.153,0.161,-0.007,-0.05,0.142,0.131,0.026,0.099,-0.096,0.169,-0.258,-0.141
0.678,0.204,0.092,-0.112,-0.148,0.158,-0.009,-0.052,0.138,0.127,0.022,0.096,-0.098,0.167,-0.255,-0.141
0.679,0.205,0.093,-0.112,-0.149,0.159,-0.009,-0.051,0.139,0.128,0.022,0.097,-0.098,0.167,-0.256,-0.139
0.68,0.209,0.099,-0.111,-0.154,0.16,-0.005,-0.048,0.141,0.129,0.024,0.099,-0.096,0.17,-0.258,-0.138
0.681,0.21,0.097,-0.114,-0.153,0.162,-0.009,-0.049,0.141,0.127,0.022,0.099,-0.097,0.168,-0.257,-0.138
0.682,0.209,0.094,-0.116,-0.151,0.163,-0.011,-0.051,0.141,0.128,0.022,0.102,-0.096,0.168,-0.258,-0.138
0.683,0.204,0.091,-0.114,-0.147,0.16,-0.011,-0.049,0.137,0.126,0.019,0.102,-0.095,0.168,-0.26,-0.138
0.684,0.209,0.095,-0.115,-0.151,0.163,-0.011,-0.045,0.14,0.128,0.021,0.101,-0.093,0.169,-0.261,-0.138
0.685,0.214,0.097,-0.118,-0.155,0.167,-0.011,-0.047,0.14,0.128,0.021,0.102,-0.091,0.17,-0.262,-0.138
0.686,0.209,0.093,-0.116,-0.151,0.163,-0.011,-0.047,0.136,0.123,0.018,0.102,-0.091,0.17,-0.259,-0.137
0.687,0.21,0.096,-0.115,-0.152,0.163,-0.009,-0.045,0.137,0.124,0.017,0.103,-0.089,0.171,-0.257,-0.136
0.688,0.213,0.098,-0.116,-0.155,0.165,-0.009,-0.046,0.139,0.125,0.018,0.102,-0.091,0.17,-0.261,-0.134
0.689,0.211,0.096,-0.116,-0.153,0.164,-0.01,-0.048,0.138,0.123,0.017,0.1,-0.092,0.169,-0.26,-0.133
0.69,0.209,0.095,-0.115,-0.151,0.163,-0.011,-0.05,0.136,0.122,0.015,0.1,-0.09,0.17,-0.257,-0.132
0.691,0.21,0.096,-0.115,-0.152,0.163,-0.01,-0.053,0.135,0.119,0.013,0.099,-0.093,0.17,-0.257,-0.131
0.692,0.207,0.093,-0.114,-0.15,0.161,-0.01,-0.054,0.132,0.117,0.01,0.098,-0.095,0.169,-0.257,-0.131
0.693,0.203,0.093,-0.111,-0.148,0.157,-0.009,-0.051,0.131,0.116,0.009,0.094,-0.096,0.168,-0.259,-0.131
0.694,0.203,0.093,-0.11,-0.148,0.157,-0.008,-0.05,0.133,0.117,0.009,0.092,-0.097,0.166,-0.257,-0.131
0.695,0.201,0.095,-0.106,-0.147,0.153,-0.005,-0.053,0.13,0.114,0.007,0.091,-0.099,0.165,-0.255,-0.13
0.696,0.2,0.093,-0.106,-0.146,0.153,-0.006,-0.053,0.126,0.111,0.004,0.09,-0.1,0.165,-0.256,-0.13
0.697,0.198,0.09,-0.107,-0.144,0.153,-0.009,-0.054,0.127,0.111,0.004,0.089,-0.101,0.163,-0.259,-0.129
0.698,0.203,0.096,-0.106,-0.148,0.154,-0.005,-0.057,0.127,0.112,0.004,0.09,-0.1,0.164,-0.257,-0.128
0.699,0.203,0.097,-0.105,-0.149,0.154,-0.004,-0.051,0.125,0.111,0.003,0.09,-0.1,0.163,-0.253,-0.129
0.7,0.201,0.096,-0.105,-0.148,0.153,-0.005,-0.054,0.123,0.107,0.001,0.086,-0.101,0.162,-0.255,-0.127
0.701,0.203,0.097,-0.105,-0.149,0.154,-0.004,-0.053,0.124,0.107,0,0.085,-0.1,0.163,-0.257,-0.127
0.702,0.2,0.099,-0.102,-0.148,0.151,-0.002,-0.051,0.128,0.109,0.002,0.086,-0.101,0.161,-0.255,-0.128
0.703,0.198,0.096,-0.102,-0.146,0.15,-0.004,-0.058,0.124,0.105,-0.003,0.084,-0.103,0.16,-0.255,-0.127
0.704,0.198,0.091,-0.106,-0.144,0.152,-0.007,-0.06,0.117,0.1,-0.008,0.081,-0.104,0.16,-0.258,-0.124
0.705,0.2,0.092,-0.108,-0.146,0.154,-0.008,-0.061,0.117,0.099,-0.009,0.082,-0.104,0.16,-0.261,-0.124
0.706,0.199,0.09,-0.108,-0.144,0.153,-0.009,-0.06,0.12,0.099,-0.007,0.083,-0.104,0.158,-0.255,-0.125
0.707,0.208,0.097,-0.111,-0.152,0.16,-0.007,-0.059,0.12,0.099,-0.009,0.083,-0.102,0.16,-0.253,-0.124
0.708,0.211,0.098,-0.113,-0.154,0.163,-0.007,-0.061,0.115,0.096,-0.013,0.08,-0.106,0.159,-0.26,-0.123
0.709,0.203,0.092,-0.11,-0.147,0.157,-0.009,-0.061,0.113,0.094,-0.015,0.077,-0.11,0.154,-0.254,-0.123
0.71,0.205,0.09,-0.115,-0.148,0.161,-0.012,-0.059,0.114,0.095,-0.015,0.078,-0.108,0.155,-0.254,-0.123
0.711,0.205,0.086,-0.12,-0.145,0.163,-0.018,-0.059,0.112,0.093,-0.017,0.077,-0.108,0.157,-0.262,-0.122
0.712,0.204,0.088,-0.116,-0.146,0.16,-0.013,-0.06,0.113,0.094,-0.018,0.076,-0.108,0.157,-0.261,-0.122
0.713,0.207,0.093,-0.114,-0.15,0.161,-0.011,-0.058,0.114,0.094,-0.017,0.076,-0.107,0.154,-0.26,-0.123
0.714,0.207,0.092,-0.115,-0.149,0.161,-0.011,-0.058,0.114,0.095,-0.015,0.079,-0.106,0.157,-0.254,-0.122
0.715,0.209,0.096,-0.115,-0.152,0.163,-0.009,-0.057,0.114,0.096,-0.015,0.081,-0.104,0.159,-0.252,-0.122
0.716,0.21,0.093,-0.117,-0.151,0.164,-0.012,-0.058,0.11,0.092,-0.018,0.077,-0.106,0.155,-0.258,-0.123
0.717,0.207,0.089,-0.118,-0.148,0.163,-0.015,-0.059,0.107,0.089,-0.02,0.074,-0.107,0.156,-0.26,-0.121
0.718,0.205,0.09,-0.115,-0.147,0.16,-0.013,-0.058,0.108,0.087,-0.021,0.072,-0.108,0.155,-0.26,-0.119
0.719,0.203,0.089,-0.114,-0.146,0.159,-0.012,-0.058,0.108,0.087,-0.021,0.073,-0.107,0.154,-0.259,-0.12
0.72,0.204,0.091,-0.113,-0.147,0.159,-0.011,-0.064,0.105,0.085,-0.022,0.073,-0.107,0.154,-0.259,-0.12
0.721,0.203,0.093,-0.111,-0.148,0.157,-0.009,-0.067,0.103,0.082,-0.025,0.071,-0.106,0.152,-0.257,-0.121
0.722,0.205,0.093,-0.112,-0.149,0.159,-0.009,-0.059,0.103,0.084,-0.022,0.073,-0.105,0.153,-0.258,-0.12
0.723,0.206,0.091,-0.115,-0.148,0.161,-0.012,-0.059,0.102,0.084,-0.023,0.073,-0.106,0.154,-0.264,-0.119
0.724,0.207,0.091,-0.116,-0.149,0.162,-0.012,-0.057,0.105,0.084,-0.021,0.074,-0.105,0.155,-0.261,-0.119
0.725,0.204,0.09,-0.115,-0.147,0.16,-0.012,-0.057,0.105,0.082,-0.022,0.073,-0.105,0.156,-0.26,-0.119
0.726,0.202,0.087,-0.115,-0.144,0.159,-0.013,-0.065,0.101,0.08,-0.026,0.071,-0.107,0.154,-0.263,-0.119
0.727,0.201,0.089,-0.112,-0.144,0.157,-0.011,-0.063,0.1,0.079,-0.026,0.07,-0.108,0.152,-0.26,-0.119
0.728,0.194,0.086,-0.109,-0.14,0.151,-0.011,-0.06,0.101,0.077,-0.028,0.068,-0.113,0.149,-0.257,-0.12
0.729,0.2,0.088,-0.111,-0.143,0.155,-0.011,-0.059,0.101,0.076,-0.029,0.069,-0.111,0.15,-0.259,-0.119
0.73,0.203,0.09,-0.113,-0.146,0.159,-0.011,-0.061,0.102,0.076,-0.029,0.068,-0.11,0.152,-0.261,-0.118
0.731,0.2,0.088,-0.112,-0.143,0.156,-0.011,-0.062,0.102,0.075,-0.029,0.068,-0.112,0.152,-0.263,-0.117
0.732,0.195,0.087,-0.107,-0.141,0.151,-0.01,-0.061,0.101,0.074,-0.029,0.067,-0.113,0.148,-0.261,-0.116
0.733,0.192,0.086,-0.106,-0.139,0.149,-0.011,-0.061,0.1,0.073,-0.031,0.065,-0.115,0.146,-0.257,-0.117
0.734,0.198,0.087,-0.11,-0.142,0.154,-0.011,-0.064,0.098,0.072,-0.032,0.066,-0.113,0.146,-0.254,-0.117
0.735,0.2,0.089,-0.112,-0.144,0.156,-0.011,-0.063,0.099,0.073,-0.031,0.066,-0.114,0.145,-0.261,-0.116
0.736,0.198,0.086,-0.112,-0.142,0.155,-0.013,-0.063,0.098,0.071,-0.032,0.064,-0.117,0.143,-0.265,-0.117
0.737,0.192,0.085,-0.107,-0.139,0.15,-0.011,-0.062,0.1,0.072,-0.031,0.065,-0.117,0.142,-0.262,-0.119
0.738,0.196,0.09,-0.105,-0.142,0.15,-0.007,-0.06,0.099,0.072,-0.032,0.062,-0.119,0.145,-0.261,-0.117
0.739,0.195,0.087,-0.107,-0.141,0.151,-0.009,-0.063,0.095,0.07,-0.035,0.061,-0.12,0.143,-0.263,-0.116
0.74,0.191,0.085,-0.106,-0.137,0.148,-0.011,-0.062,0.094,0.07,-0.035,0.061,-0.119,0.141,-0.264,-0.117
0.741,0.191,0.086,-0.104,-0.139,0.148,-0.009,-0.061,0.095,0.072,-0.035,0.062,-0.117,0.142,-0.26,-0.116
0.742,0.188,0.085,-0.103,-0.136,0.145,-0.009,-0.064,0.092,0.07,-0.037,0.062,-0.118,0.142,-0.26,-0.116
0.743,0.186,0.085,-0.101,-0.135,0.144,-0.008,-0.065,0.088,0.067,-0.041,0.058,-0.121,0.14,-0.26,-0.116
0.744,0.189,0.085,-0.104,-0.137,0.146,-0.009,-0.064,0.091,0.069,-0.041,0.057,-0.119,0.141,-0.256,-0.117
0.745,0.194,0.087,-0.106,-0.141,0.15,-0.009,-0.065,0.092,0.07,-0.042,0.059,-0.116,0.144,-0.256,-0.117
0.746,0.194,0.089,-0.104,-0.141,0.149,-0.007,-0.065,0.09,0.068,-0.044,0.058,-0.118,0.143,-0.261,-0.115
0.747,0.192,0.087,-0.104,-0.139,0.148,-0.009,-0.069,0.087,0.066,-0.048,0.055,-0.118,0.141,-0.262,-0.113
0.748,0.192,0.087,-0.104,-0.14,0.148,-0.009,-0.068,0.089,0.067,-0.046,0.058,-0.118,0.141,-0.261,-0.114
0.749,0.192,0.085,-0.106,-0.138,0.149,-0.011,-0.067,0.09,0.068,-0.045,0.057,-0.119,0.141,-0.268,-0.114
0.75,0.193,0.086,-0.107,-0.139,0.15,-0.011,-0.067,0.09,0.068,-0.047,0.055,-0.118,0.141,-0.269,-0.113
0.751,0.192,0.087,-0.104,-0.14,0.148,-0.009,-0.064,0.093,0.07,-0.046,0.057,-0.117,0.141,-0.262,-0.114
0.752,0.193,0.088,-0.104,-0.141,0.148,-0.007,-0.064,0.093,0.071,-0.043,0.057,-0.114,0.141,-0.258,-0.114
0.753,0.194,0.087,-0.106,-0.14,0.15,-0.01,-0.066,0.092,0.069,-0.045,0.055,-0.116,0.14,-0.265,-0.113
0.754,0.191,0.084,-0.106,-0.137,0.149,-0.011,-0.068,0.088,0.064,-0.05,0.051,-0.12,0.138,-0.268,-0.111
0.755,0.191,0.084,-0.107,-0.137,0.149,-0.011,-0.067,0.088,0.065,-0.049,0.052,-0.121,0.139,-0.266,-0.112
0.756,0.192,0.083,-0.109,-0.137,0.15,-0.013,-0.065,0.091,0.068,-0.048,0.054,-0.122,0.138,-0.265,-0.113
0.757,0.189,0.081,-0.108,-0.135,0.148,-0.013,-0.061,0.091,0.068,-0.048,0.052,-0.121,0.137,-0.264,-0.113
0.758,0.19,0.08,-0.111,-0.135,0.15,-0.015,-0.064,0.09,0.066,-0.048,0.052,-0.122,0.139,-0.27,-0.112
0.759,0.187,0.076,-0.111,-0.132,0.149,-0.017,-0.067,0.089,0.065,-0.049,0.052,-0.122,0.14,-0.273,-0.112
0.76,0.189,0.079,-0.11,-0.134,0.149,-0.015,-0.071,0.085,0.064,-0.051,0.05,-0.124,0.139,-0.27,-0.111
0.761,0.191,0.077,-0.114,-0.134,0.153,-0.018,-0.07,0.085,0.062,-0.051,0.049,-0.124,0.139,-0.271,-0.108
0.762,0.189,0.073,-0.115,-0.131,0.152,-0.021,-0.066,0.085,0.064,-0.051,0.047,-0.124,0.139,-0.272,-0.109
0.763,0.187,0.075,-0.112,-0.131,0.15,-0.018,-0.065,0.087,0.064,-0.05,0.047,-0.123,0.14,-0.262,-0.11
0.764,0.185,0.075,-0.11,-0.13,0.147,-0.017,-0.066,0.086,0.063,-0.051,0.046,-0.124,0.139,-0.261,-0.11
0.765,0.189,0.084,-0.105,-0.136,0.147,-0.011,-0.06,0.089,0.067,-0.05,0.047,-0.123,0.14,-0.262,-0.11
0.766,0.186,0.085,-0.102,-0.136,0.144,-0.008,-0.065,0.087,0.064,-0.051,0.044,-0.126,0.137,-0.262,-0.109
0.767,0.179,0.081,-0.099,-0.13,0.14,-0.009,-0.07,0.084,0.062,-0.055,0.042,-0.128,0.136,-0.265,-0.109
0.768,0.175,0.081,-0.095,-0.128,0.136,-0.007,-0.069,0.085,0.062,-0.056,0.041,-0.128,0.136,-0.261,-0.11
0.769,0.176,0.079,-0.097,-0.128,0.137,-0.009,-0.072,0.081,0.059,-0.059,0.037,-0.133,0.133,-0.258,-0.108
0.77,0.181,0.084,-0.098,-0.133,0.14,-0.007,-0.073,0.082,0.059,-0.058,0.038,-0.13,0.135,-0.259,-0.11
0.771,0.186,0.092,-0.095,-0.139,0.141,-0.001,-0.07,0.082,0.059,-0.058,0.041,-0.128,0.136,-0.262,-0.109
0.772,0.185,0.092,-0.093,-0.139,0.14,-0.001,-0.064,0.086,0.062,-0.056,0.043,-0.128,0.135,-0.262,-0.111
0.773,0.184,0.086,-0.097,-0.135,0.141,-0.005,-0.068,0.087,0.063,-0.055,0.043,-0.128,0.136,-0.265,-0.111
0.774,0.185,0.084,-0.101,-0.135,0.143,-0.009,-0.072,0.085,0.061,-0.058,0.043,-0.127,0.138,-0.267,-0.109
0.775,0.18,0.084,-0.097,-0.132,0.139,-0.006,-0.066,0.085,0.059,-0.058,0.042,-0.126,0.135,-0.263,-0.11
0.776,0.179,0.084,-0.096,-0.132,0.138,-0.006,-0.068,0.082,0.055,-0.061,0.04,-0.129,0.132,-0.258,-0.111
0.777,0.183,0.086,-0.097,-0.135,0.141,-0.005,-0.073,0.083,0.058,-0.06,0.041,-0.128,0.132,-0.261,-0.111
0.778,0.187,0.089,-0.098,-0.138,0.143,-0.004,-0.074,0.083,0.059,-0.059,0.043,-0.126,0.134,-0.266,-0.108
0.779,0.188,0.087,-0.101,-0.138,0.145,-0.007,-0.07,0.084,0.059,-0.059,0.043,-0.124,0.135,-0.265,-0.108
0.78,0.19,0.085,-0.105,-0.137,0.147,-0.011,-0.07,0.083,0.058,-0.06,0.042,-0.123,0.135,-0.265,-0.108
0.781,0.188,0.086,-0.102,-0.137,0.145,-0.008,-0.071,0.081,0.058,-0.059,0.042,-0.122,0.136,-0.267,-0.106
0.782,0.189,0.09,-0.099,-0.139,0.144,-0.004,-0.067,0.085,0.061,-0.057,0.043,-0.122,0.137,-0.263,-0.107
0.783,0.194,0.09,-0.104,-0.141,0.149,-0.007,-0.069,0.085,0.061,-0.057,0.045,-0.121,0.14,-0.264,-0.106
0.784,0.193,0.088,-0.104,-0.14,0.149,-0.009,-0.07,0.082,0.06,-0.059,0.042,-0.123,0.137,-0.268,-0.105
0.785,0.19,0.088,-0.102,-0.139,0.146,-0.006,-0.069,0.082,0.058,-0.058,0.04,-0.123,0.135,-0.266,-0.105
0.786,0.182,0.084,-0.099,-0.133,0.141,-0.007,-0.069,0.082,0.057,-0.058,0.04,-0.123,0.133,-0.263,-0.106
0.787,0.186,0.088,-0.099,-0.137,0.142,-0.005,-0.069,0.081,0.054,-0.06,0.036,-0.127,0.13,-0.262,-0.105
0.788,0.198,0.093,-0.104,-0.145,0.151,-0.005,-0.07,0.085,0.058,-0.056,0.041,-0.123,0.138,-0.265,-0.104
0.789,0.195,0.09,-0.104,-0.142,0.15,-0.007,-0.068,0.083,0.056,-0.057,0.04,-0.124,0.137,-0.272,-0.104
0.79,0.189,0.087,-0.101,-0.138,0.145,-0.006,-0.07,0.08,0.051,-0.062,0.034,-0.129,0.13,-0.267,-0.104
0.791,0.193,0.09,-0.102,-0.141,0.147,-0.006,-0.069,0.085,0.055,-0.058,0.037,-0.128,0.132,-0.261,-0.105
0.792,0.195,0.09,-0.104,-0.142,0.15,-0.007,-0.068,0.083,0.053,-0.059,0.037,-0.127,0.135,-0.266,-0.104
0.793,0.193,0.087,-0.106,-0.14,0.15,-0.009,-0.07,0.081,0.051,-0.061,0.035,-0.128,0.135,-0.269,-0.103
0.794,0.19,0.086,-0.103,-0.138,0.147,-0.009,-0.07,0.08,0.05,-0.064,0.035,-0.127,0.134,-0.268,-0.104
0.795,0.188,0.088,-0.1,-0.138,0.144,-0.006,-0.068,0.082,0.051,-0.062,0.036,-0.128,0.132,-0.267,-0.105
0.796,0.19,0.086,-0.103,-0.138,0.146,-0.009,-0.065,0.083,0.052,-0.061,0.034,-0.132,0.13,-0.271,-0.104
0.797,0.192,0.085,-0.107,-0.138,0.149,-0.011,-0.071,0.075,0.047,-0.066,0.029,-0.134,0.13,-0.271,-0.102
0.798,0.192,0.087,-0.104,-0.139,0.148,-0.009,-0.068,0.075,0.046,-0.065,0.03,-0.134,0.13,-0.267,-0.102
0.799,0.183,0.086,-0.098,-0.134,0.141,-0.006,-0.069,0.076,0.048,-0.065,0.029,-0.133,0.128,-0.267,-0.103
0.8,0.188,0.09,-0.098,-0.139,0.143,-0.004,-0.073,0.073,0.046,-0.065,0.027,-0.131,0.131,-0.263,-0.102
0.801,0.191,0.092,-0.099,-0.141,0.145,-0.004,-0.063,0.077,0.045,-0.063,0.029,-0.129,0.132,-0.263,-0.101
0.802,0.186,0.087,-0.1,-0.137,0.143,-0.006,-0.068,0.074,0.043,-0.066,0.027,-0.131,0.131,-0.265,-0.101
0.803,0.189,0.088,-0.1,-0.139,0.144,-0.006,-0.069,0.074,0.043,-0.066,0.028,-0.13,0.13,-0.264,-0.102
0.804,0.191,0.091,-0.099,-0.141,0.145,-0.004,-0.066,0.076,0.044,-0.064,0.031,-0.128,0.134,-0.263,-0.102
0.805,0.193,0.093,-0.1,-0.143,0.146,-0.003,-0.07,0.073,0.043,-0.064,0.032,-0.127,0.136,-0.259,-0.102
0.806,0.183,0.09,-0.093,-0.137,0.139,-0.002,-0.071,0.071,0.041,-0.067,0.029,-0.132,0.13,-0.263,-0.101
0.807,0.176,0.087,-0.089,-0.132,0.133,-0.001,-0.074,0.069,0.038,-0.069,0.028,-0.134,0.127,-0.264,-0.102
0.808,0.179,0.086,-0.093,-0.133,0.136,-0.003,-0.069,0.072,0.04,-0.068,0.03,-0.131,0.127,-0.261,-0.103
0.809,0.184,0.091,-0.093,-0.137,0.139,-0.001,-0.067,0.076,0.043,-0.066,0.035,-0.129,0.128,-0.261,-0.103
0.81,0.186,0.092,-0.093,-0.139,0.14,-0.001,-0.07,0.074,0.042,-0.067,0.035,-0.131,0.129,-0.266,-0.102
0.811,0.179,0.087,-0.092,-0.133,0.136,-0.002,-0.065,0.076,0.042,-0.068,0.034,-0.133,0.124,-0.269,-0.102
0.812,0.179,0.086,-0.092,-0.133,0.136,-0.003,-0.066,0.075,0.042,-0.068,0.034,-0.133,0.123,-0.266,-0.104
0.813,0.179,0.083,-0.096,-0.131,0.138,-0.006,-0.071,0.072,0.038,-0.07,0.03,-0.137,0.121,-0.265,-0.104
0.814,0.178,0.086,-0.092,-0.132,0.136,-0.003,-0.069,0.072,0.04,-0.07,0.029,-0.137,0.12,-0.262,-0.106
0.815,0.182,0.086,-0.096,-0.135,0.14,-0.005,-0.07,0.071,0.038,-0.071,0.031,-0.136,0.121,-0.263,-0.107
0.816,0.186,0.083,-0.103,-0.134,0.144,-0.01,-0.074,0.071,0.037,-0.072,0.033,-0.136,0.122,-0.265,-0.104
0.817,0.181,0.08,-0.102,-0.131,0.142,-0.011,-0.068,0.073,0.039,-0.07,0.033,-0.137,0.118,-0.266,-0.107
0.818,0.181,0.081,-0.101,-0.131,0.141,-0.01,-0.062,0.075,0.04,-0.069,0.034,-0.135,0.118,-0.268,-0.106
0.819,0.184,0.084,-0.101,-0.134,0.142,-0.009,-0.068,0.073,0.038,-0.069,0.035,-0.135,0.121,-0.271,-0.104
0.82,0.183,0.082,-0.102,-0.132,0.142,-0.009,-0.07,0.072,0.038,-0.071,0.034,-0.137,0.12,-0.27,-0.104
0.821,0.183,0.081,-0.102,-0.132,0.143,-0.011,-0.07,0.072,0.04,-0.071,0.034,-0.137,0.121,-0.269,-0.105
0.822,0.179,0.078,-0.102,-0.129,0.141,-0.011,-0.069,0.073,0.041,-0.071,0.033,-0.137,0.12,-0.27,-0.105
0.823,0.18,0.08,-0.101,-0.13,0.141,-0.01,-0.069,0.073,0.041,-0.072,0.032,-0.137,0.121,-0.269,-0.104
0.824,0.18,0.081,-0.1,-0.131,0.14,-0.009,-0.072,0.072,0.04,-0.072,0.03,-0.139,0.12,-0.268,-0.103
0.825,0.179,0.08,-0.1,-0.13,0.14,-0.01,-0.074,0.073,0.038,-0.071,0.03,-0.139,0.119,-0.267,-0.103
0.826,0.181,0.081,-0.1,-0.131,0.141,-0.009,-0.071,0.074,0.038,-0.07,0.03,-0.14,0.118,-0.266,-0.105
0.827,0.183,0.084,-0.1,-0.134,0.142,-0.008,-0.067,0.074,0.039,-0.068,0.029,-0.139,0.117,-0.268,-0.105
0.828,0.188,0.086,-0.101,-0.137,0.144,-0.007,-0.068,0.074,0.04,-0.068,0.03,-0.138,0.117,-0.27,-0.105
0.829,0.191,0.09,-0.1,-0.141,0.146,-0.005,-0.065,0.076,0.041,-0.066,0.032,-0.137,0.118,-0.267,-0.104
0.83,0.193,0.09,-0.102,-0.141,0.147,-0.006,-0.066,0.075,0.039,-0.065,0.033,-0.137,0.119,-0.268,-0.103
0.831,0.189,0.087,-0.102,-0.138,0.145,-0.007,-0.067,0.074,0.039,-0.065,0.033,-0.138,0.118,-0.266,-0.103
0.832,0.192,0.088,-0.104,-0.14,0.148,-0.008,-0.067,0.074,0.038,-0.066,0.033,-0.138,0.118,-0.265,-0.104
0.833,0.192,0.087,-0.104,-0.139,0.148,-0.009,-0.069,0.075,0.039,-0.065,0.034,-0.138,0.117,-0.269,-0.105
0.834,0.186,0.087,-0.099,-0.137,0.143,-0.006,-0.068,0.077,0.04,-0.065,0.034,-0.137,0.116,-0.267,-0.104
0.835,0.184,0.086,-0.099,-0.135,0.141,-0.006,-0.07,0.074,0.037,-0.067,0.031,-0.139,0.113,-0.267,-0.105
0.836,0.182,0.086,-0.096,-0.134,0.139,-0.004,-0.067,0.073,0.036,-0.068,0.03,-0.139,0.113,-0.265,-0.105
0.837,0.184,0.086,-0.098,-0.136,0.141,-0.005,-0.069,0.072,0.035,-0.069,0.029,-0.137,0.116,-0.266,-0.104
0.838,0.185,0.085,-0.1,-0.135,0.143,-0.008,-0.069,0.073,0.036,-0.069,0.03,-0.137,0.117,-0.267,-0.103
0.839,0.186,0.084,-0.102,-0.135,0.144,-0.009,-0.071,0.07,0.033,-0.07,0.03,-0.138,0.116,-0.266,-0.102
0.84,0.189,0.086,-0.103,-0.137,0.146,-0.009,-0.071,0.069,0.033,-0.069,0.03,-0.136,0.116,-0.265,-0.103
0.841,0.188,0.086,-0.102,-0.137,0.145,-0.008,-0.075,0.067,0.032,-0.07,0.029,-0.137,0.116,-0.265,-0.103
0.842,0.188,0.086,-0.102,-0.137,0.145,-0.007,-0.075,0.066,0.031,-0.07,0.029,-0.138,0.114,-0.266,-0.102
0.843,0.192,0.093,-0.099,-0.142,0.145,-0.003,-0.066,0.077,0.036,-0.065,0.034,-0.135,0.115,-0.264,-0.104
0.844,0.193,0.094,-0.099,-0.143,0.146,-0.003,-0.069,0.075,0.035,-0.066,0.032,-0.136,0.117,-0.263,-0.104
0.845,0.19,0.091,-0.099,-0.14,0.144,-0.004,-0.07,0.07,0.032,-0.07,0.029,-0.137,0.116,-0.262,-0.103
0.846,0.187,0.087,-0.1,-0.137,0.143,-0.006,-0.074,0.065,0.029,-0.072,0.026,-0.139,0.115,-0.264,-0.101
0.847,0.182,0.086,-0.097,-0.134,0.14,-0.005,-0.074,0.065,0.029,-0.072,0.026,-0.14,0.114,-0.263,-0.102
0.848,0.183,0.089,-0.093,-0.136,0.139,-0.002,-0.071,0.069,0.029,-0.073,0.027,-0.139,0.114,-0.262,-0.103
0.849,0.185,0.089,-0.096,-0.137,0.141,-0.003,-0.073,0.069,0.029,-0.074,0.029,-0.137,0.118,-0.263,-0.102
0.85,0.18,0.087,-0.093,-0.133,0.137,-0.003,-0.075,0.066,0.026,-0.076,0.028,-0.138,0.118,-0.257,-0.101
0.851,0.18,0.084,-0.096,-0.132,0.138,-0.006,-0.077,0.06,0.022,-0.08,0.025,-0.14,0.119,-0.261,-0.099
0.852,0.183,0.084,-0.1,-0.134,0.142,-0.008,-0.077,0.063,0.025,-0.078,0.025,-0.139,0.119,-0.262,-0.1
0.853,0.184,0.087,-0.098,-0.135,0.141,-0.005,-0.075,0.065,0.025,-0.077,0.026,-0.138,0.119,-0.26,-0.1
0.854,0.18,0.089,-0.091,-0.134,0.136,-0.001,-0.072,0.068,0.028,-0.076,0.028,-0.136,0.119,-0.262,-0.101
0.855,0.174,0.086,-0.088,-0.13,0.132,-0.001,-0.074,0.064,0.026,-0.078,0.028,-0.138,0.116,-0.259,-0.101
0.856,0.178,0.087,-0.091,-0.133,0.135,-0.002,-0.074,0.061,0.023,-0.08,0.026,-0.14,0.117,-0.262,-0.101
0.857,0.181,0.088,-0.093,-0.135,0.138,-0.002,-0.071,0.068,0.026,-0.074,0.029,-0.136,0.119,-0.261,-0.101
0.858,0.181,0.087,-0.095,-0.134,0.138,-0.004,-0.069,0.07,0.028,-0.075,0.029,-0.138,0.118,-0.26,-0.1
0.859,0.178,0.085,-0.094,-0.132,0.137,-0.004,-0.073,0.068,0.028,-0.077,0.028,-0.138,0.117,-0.264,-0.101
0.86,0.181,0.086,-0.096,-0.133,0.139,-0.005,-0.074,0.068,0.027,-0.077,0.029,-0.137,0.119,-0.264,-0.101
0.861,0.185,0.089,-0.097,-0.137,0.141,-0.004,-0.075,0.067,0.028,-0.078,0.028,-0.137,0.121,-0.264,-0.1
0.862,0.18,0.087,-0.093,-0.134,0.137,-0.003,-0.075,0.064,0.028,-0.08,0.025,-0.14,0.119,-0.267,-0.099
0.863,0.181,0.089,-0.091,-0.135,0.137,-0.001,-0.073,0.066,0.029,-0.08,0.025,-0.141,0.118,-0.267,-0.099
0.864,0.184,0.09,-0.093,-0.137,0.139,-0.002,-0.076,0.065,0.028,-0.081,0.025,-0.139,0.119,-0.261,-0.098
0.865,0.179,0.088,-0.09,-0.134,0.135,-0.001,-0.077,0.064,0.027,-0.081,0.024,-0.14,0.117,-0.259,-0.099
0.866,0.175,0.087,-0.088,-0.132,0.132,0,-0.079,0.061,0.026,-0.082,0.022,-0.141,0.115,-0.258,-0.099
0.867,0.177,0.088,-0.089,-0.132,0.134,-0.001,-0.076,0.06,0.024,-0.084,0.02,-0.143,0.115,-0.26,-0.098
0.868,0.175,0.084,-0.091,-0.129,0.134,-0.004,-0.074,0.06,0.023,-0.085,0.021,-0.142,0.115,-0.262,-0.099
0.869,0.173,0.077,-0.096,-0.125,0.135,-0.009,-0.077,0.058,0.021,-0.086,0.021,-0.143,0.113,-0.261,-0.098
0.87,0.181,0.085,-0.097,-0.133,0.139,-0.006,-0.075,0.061,0.023,-0.083,0.021,-0.141,0.114,-0.261,-0.099
0.871,0.189,0.09,-0.099,-0.139,0.143,-0.004,-0.075,0.065,0.025,-0.08,0.024,-0.138,0.118,-0.262,-0.099
0.872,0.188,0.088,-0.1,-0.138,0.144,-0.006,-0.076,0.062,0.023,-0.083,0.023,-0.14,0.117,-0.265,-0.096
0.873,0.183,0.088,-0.096,-0.136,0.14,-0.004,-0.075,0.065,0.025,-0.08,0.025,-0.137,0.116,-0.259,-0.098
0.874,0.178,0.086,-0.092,-0.132,0.135,-0.004,-0.071,0.066,0.025,-0.076,0.027,-0.134,0.115,-0.254,-0.101
0.875,0.182,0.086,-0.095,-0.134,0.139,-0.004,-0.07,0.065,0.024,-0.078,0.025,-0.136,0.115,-0.26,-0.098
0.876,0.179,0.084,-0.096,-0.131,0.138,-0.006,-0.072,0.067,0.023,-0.079,0.022,-0.139,0.117,-0.265,-0.097
0.877,0.173,0.08,-0.093,-0.127,0.134,-0.006,-0.071,0.067,0.024,-0.079,0.021,-0.141,0.113,-0.267,-0.099
0.878,0.174,0.082,-0.092,-0.128,0.134,-0.005,-0.069,0.067,0.025,-0.076,0.025,-0.14,0.112,-0.264,-0.1
0.879,0.172,0.08,-0.092,-0.125,0.132,-0.006,-0.069,0.066,0.024,-0.076,0.025,-0.14,0.113,-0.266,-0.098
0.88,0.173,0.08,-0.093,-0.126,0.134,-0.007,-0.07,0.065,0.024,-0.077,0.024,-0.141,0.112,-0.266,-0.097
0.881,0.174,0.079,-0.095,-0.126,0.135,-0.008,-0.071,0.064,0.024,-0.078,0.025,-0.142,0.112,-0.267,-0.098
0.882,0.178,0.082,-0.097,-0.13,0.138,-0.007,-0.072,0.064,0.023,-0.079,0.024,-0.143,0.113,-0.27,-0.097
0.883,0.183,0.086,-0.097,-0.135,0.14,-0.005,-0.071,0.063,0.022,-0.078,0.025,-0.142,0.114,-0.272,-0.097
0.884,0.184,0.088,-0.095,-0.136,0.14,-0.004,-0.07,0.066,0.023,-0.078,0.025,-0.144,0.114,-0.27,-0.098
0.885,0.18,0.089,-0.091,-0.134,0.136,-0.002,-0.068,0.068,0.025,-0.077,0.024,-0.144,0.113,-0.265,-0.098
0.886,0.177,0.086,-0.091,-0.131,0.134,-0.003,-0.068,0.065,0.022,-0.079,0.023,-0.143,0.112,-0.265,-0.098
0.887,0.182,0.089,-0.092,-0.136,0.138,-0.002,-0.073,0.066,0.022,-0.08,0.025,-0.142,0.114,-0.263,-0.096
0.888,0.181,0.089,-0.092,-0.135,0.138,-0.002,-0.074,0.065,0.022,-0.081,0.025,-0.141,0.116,-0.262,-0.097
0.889,0.178,0.087,-0.091,-0.132,0.135,-0.002,-0.074,0.063,0.02,-0.083,0.021,-0.143,0.112,-0.265,-0.096
0.89,0.18,0.092,-0.087,-0.136,0.134,0.003,-0.073,0.066,0.021,-0.083,0.021,-0.144,0.112,-0.262,-0.095
0.891,0.179,0.092,-0.086,-0.135,0.133,0.003,-0.075,0.066,0.021,-0.083,0.024,-0.143,0.113,-0.26,-0.095
0.892,0.175,0.088,-0.086,-0.132,0.131,0.001,-0.074,0.064,0.02,-0.082,0.024,-0.143,0.111,-0.262,-0.096
0.893,0.174,0.09,-0.084,-0.132,0.129,0.004,-0.069,0.065,0.019,-0.083,0.024,-0.144,0.11,-0.259,-0.096
0.894,0.174,0.092,-0.082,-0.133,0.128,0.005,-0.076,0.064,0.019,-0.083,0.023,-0.145,0.11,-0.255,-0.096
0.895,0.176,0.093,-0.083,-0.135,0.13,0.005,-0.077,0.062,0.018,-0.083,0.021,-0.146,0.109,-0.26,-0.095
0.896,0.176,0.093,-0.083,-0.135,0.13,0.005,-0.075,0.062,0.018,-0.083,0.024,-0.146,0.109,-0.26,-0.097
0.897,0.174,0.091,-0.083,-0.133,0.129,0.004,-0.073,0.063,0.018,-0.082,0.024,-0.146,0.107,-0.254,-0.098
0.898,0.174,0.089,-0.086,-0.132,0.13,0.002,-0.075,0.062,0.019,-0.08,0.025,-0.143,0.108,-0.259,-0.096
0.899,0.173,0.088,-0.085,-0.13,0.129,0.002,-0.077,0.064,0.022,-0.08,0.026,-0.143,0.109,-0.262,-0.096
0.9,0.171,0.086,-0.084,-0.129,0.128,0.001,-0.074,0.065,0.02,-0.081,0.023,-0.146,0.105,-0.263,-0.097
0.901,0.173,0.088,-0.086,-0.131,0.13,0.001,-0.077,0.062,0.018,-0.082,0.022,-0.145,0.107,-0.265,-0.095
0.902,0.17,0.09,-0.08,-0.13,0.125,0.005,-0.071,0.066,0.02,-0.084,0.023,-0.145,0.108,-0.261,-0.096
0.903,0.168,0.087,-0.081,-0.127,0.124,0.004,-0.074,0.065,0.019,-0.084,0.024,-0.142,0.11,-0.261,-0.095
0.904,0.172,0.091,-0.081,-0.132,0.127,0.005,-0.076,0.062,0.019,-0.085,0.024,-0.141,0.113,-0.261,-0.093
0.905,0.171,0.091,-0.079,-0.131,0.125,0.006,-0.072,0.063,0.019,-0.083,0.024,-0.142,0.111,-0.263,-0.093
0.906,0.169,0.087,-0.081,-0.128,0.125,0.003,-0.078,0.063,0.018,-0.085,0.022,-0.142,0.11,-0.267,-0.091
0.907,0.168,0.086,-0.081,-0.127,0.124,0.003,-0.076,0.06,0.018,-0.086,0.022,-0.143,0.11,-0.265,-0.091
0.908,0.172,0.087,-0.085,-0.13,0.129,0.002,-0.077,0.059,0.018,-0.083,0.026,-0.14,0.113,-0.265,-0.091
0.909,0.17,0.09,-0.08,-0.13,0.125,0.005,-0.072,0.064,0.019,-0.083,0.025,-0.142,0.11,-0.258,-0.093
0.91,0.168,0.091,-0.076,-0.129,0.122,0.007,-0.069,0.062,0.018,-0.082,0.022,-0.146,0.106,-0.253,-0.095
0.911,0.166,0.088,-0.077,-0.127,0.121,0.006,-0.076,0.06,0.019,-0.081,0.025,-0.146,0.107,-0.256,-0.097
0.912,0.166,0.09,-0.075,-0.128,0.12,0.007,-0.077,0.06,0.018,-0.083,0.024,-0.147,0.107,-0.26,-0.096
0.913,0.169,0.093,-0.075,-0.131,0.122,0.009,-0.077,0.059,0.018,-0.082,0.024,-0.147,0.108,-0.256,-0.096
0.914,0.166,0.095,-0.071,-0.13,0.118,0.011,-0.079,0.06,0.021,-0.082,0.025,-0.146,0.108,-0.254,-0.097
0.915,0.171,0.099,-0.071,-0.135,0.121,0.013,-0.081,0.06,0.021,-0.083,0.025,-0.147,0.107,-0.257,-0.095
0.916,0.172,0.102,-0.07,-0.137,0.122,0.016,-0.074,0.059,0.019,-0.082,0.025,-0.147,0.107,-0.255,-0.095
0.917,0.174,0.105,-0.069,-0.14,0.121,0.018,-0.073,0.059,0.019,-0.082,0.024,-0.147,0.108,-0.252,-0.096
0.918,0.173,0.104,-0.069,-0.139,0.121,0.018,-0.082,0.056,0.018,-0.084,0.021,-0.149,0.107,-0.251,-0.095
0.919,0.169,0.102,-0.067,-0.135,0.118,0.018,-0.084,0.054,0.015,-0.085,0.019,-0.152,0.103,-0.258,-0.097
0.92,0.172,0.102,-0.071,-0.137,0.122,0.015,-0.08,0.053,0.015,-0.086,0.018,-0.154,0.104,-0.255,-0.097
0.921,0.178,0.104,-0.074,-0.141,0.127,0.015,-0.08,0.053,0.013,-0.086,0.019,-0.154,0.107,-0.249,-0.095
0.922,0.177,0.106,-0.07,-0.141,0.124,0.018,-0.088,0.051,0.012,-0.087,0.018,-0.156,0.105,-0.253,-0.095
0.923,0.167,0.1,-0.068,-0.133,0.117,0.016,-0.088,0.05,0.011,-0.087,0.018,-0.158,0.101,-0.252,-0.097
0.924,0.173,0.1,-0.073,-0.136,0.123,0.013,-0.078,0.054,0.016,-0.083,0.021,-0.154,0.103,-0.251,-0.1
0.925,0.174,0.1,-0.074,-0.137,0.124,0.013,-0.082,0.052,0.015,-0.085,0.02,-0.155,0.103,-0.254,-0.098
0.926,0.162,0.097,-0.066,-0.129,0.114,0.015,-0.081,0.053,0.013,-0.087,0.016,-0.158,0.099,-0.255,-0.097
0.927,0.161,0.098,-0.063,-0.129,0.112,0.018,-0.08,0.053,0.014,-0.087,0.016,-0.156,0.101,-0.251,-0.096
0.928,0.164,0.098,-0.066,-0.13,0.115,0.015,-0.085,0.051,0.012,-0.088,0.015,-0.157,0.102,-0.254,-0.096
0.929,0.165,0.101,-0.064,-0.133,0.115,0.018,-0.082,0.054,0.017,-0.086,0.017,-0.155,0.103,-0.252,-0.099
0.93,0.169,0.104,-0.065,-0.137,0.117,0.02,-0.078,0.056,0.019,-0.084,0.021,-0.152,0.103,-0.249,-0.1
0.931,0.169,0.102,-0.067,-0.136,0.118,0.018,-0.08,0.057,0.018,-0.083,0.021,-0.152,0.102,-0.253,-0.098
0.932,0.163,0.1,-0.064,-0.131,0.114,0.018,-0.08,0.056,0.016,-0.086,0.018,-0.152,0.102,-0.251,-0.098
0.933,0.167,0.103,-0.064,-0.135,0.116,0.02,-0.08,0.054,0.015,-0.086,0.017,-0.152,0.102,-0.252,-0.097
0.934,0.168,0.103,-0.065,-0.136,0.117,0.019,-0.081,0.053,0.013,-0.085,0.017,-0.155,0.102,-0.255,-0.097
0.935,0.166,0.101,-0.065,-0.133,0.115,0.018,-0.082,0.052,0.013,-0.089,0.015,-0.157,0.101,-0.252,-0.095
0.936,0.168,0.104,-0.064,-0.136,0.117,0.02,-0.086,0.051,0.014,-0.089,0.015,-0.155,0.102,-0.251,-0.095
0.937,0.164,0.1,-0.064,-0.132,0.114,0.018,-0.085,0.049,0.012,-0.09,0.015,-0.155,0.099,-0.251,-0.095
0.938,0.168,0.101,-0.067,-0.134,0.117,0.017,-0.087,0.05,0.014,-0.088,0.015,-0.155,0.102,-0.252,-0.095
0.939,0.166,0.102,-0.063,-0.134,0.115,0.019,-0.083,0.054,0.015,-0.086,0.015,-0.157,0.1,-0.246,-0.098
0.94,0.163,0.102,-0.061,-0.132,0.112,0.021,-0.075,0.056,0.017,-0.086,0.015,-0.158,0.096,-0.248,-0.098
0.941,0.168,0.104,-0.065,-0.136,0.117,0.02,-0.082,0.054,0.016,-0.088,0.014,-0.159,0.097,-0.256,-0.095
0.942,0.171,0.104,-0.066,-0.138,0.118,0.019,-0.083,0.052,0.015,-0.088,0.014,-0.159,0.098,-0.252,-0.096
0.943,0.172,0.106,-0.066,-0.139,0.119,0.021,-0.082,0.052,0.015,-0.089,0.013,-0.158,0.1,-0.255,-0.095
0.944,0.169,0.104,-0.065,-0.137,0.117,0.02,-0.088,0.047,0.012,-0.092,0.013,-0.16,0.1,-0.256,-0.093
0.945,0.171,0.105,-0.065,-0.138,0.117,0.021,-0.084,0.049,0.014,-0.09,0.014,-0.158,0.1,-0.252,-0.095
0.946,0.171,0.104,-0.067,-0.138,0.119,0.019,-0.084,0.051,0.015,-0.089,0.015,-0.157,0.101,-0.251,-0.095
0.947,0.172,0.103,-0.069,-0.138,0.121,0.018,-0.084,0.049,0.015,-0.089,0.017,-0.155,0.102,-0.257,-0.093
0.948,0.172,0.106,-0.066,-0.139,0.119,0.02,-0.082,0.053,0.018,-0.087,0.018,-0.153,0.102,-0.256,-0.096
0.949,0.168,0.101,-0.067,-0.134,0.117,0.018,-0.083,0.051,0.015,-0.089,0.015,-0.157,0.1,-0.254,-0.097
0.95,0.169,0.1,-0.069,-0.135,0.119,0.015,-0.082,0.051,0.015,-0.089,0.015,-0.157,0.102,-0.258,-0.096
0.951,0.173,0.101,-0.072,-0.137,0.123,0.015,-0.088,0.049,0.014,-0.09,0.016,-0.157,0.102,-0.258,-0.096
0.952,0.174,0.102,-0.071,-0.138,0.123,0.015,-0.086,0.05,0.014,-0.089,0.019,-0.156,0.102,-0.254,-0.097
0.953,0.171,0.105,-0.066,-0.138,0.119,0.019,-0.075,0.053,0.018,-0.086,0.021,-0.155,0.101,-0.252,-0.098
0.954,0.172,0.106,-0.067,-0.139,0.119,0.02,-0.074,0.058,0.018,-0.086,0.021,-0.153,0.101,-0.253,-0.097
0.955,0.172,0.105,-0.066,-0.139,0.119,0.02,-0.08,0.058,0.017,-0.087,0.021,-0.152,0.102,-0.252,-0.097
0.956,0.165,0.101,-0.064,-0.132,0.115,0.018,-0.085,0.051,0.013,-0.091,0.017,-0.157,0.1,-0.253,-0.095
0.957,0.165,0.1,-0.065,-0.132,0.115,0.018,-0.084,0.049,0.009,-0.095,0.012,-0.16,0.098,-0.257,-0.093
0.958,0.164,0.102,-0.062,-0.133,0.114,0.019,-0.082,0.05,0.011,-0.095,0.012,-0.161,0.096,-0.254,-0.095
0.959,0.159,0.099,-0.059,-0.129,0.109,0.02,-0.083,0.05,0.011,-0.092,0.015,-0.159,0.098,-0.247,-0.095
0.96,0.161,0.099,-0.062,-0.129,0.112,0.018,-0.083,0.049,0.009,-0.093,0.015,-0.158,0.099,-0.249,-0.093
0.961,0.17,0.106,-0.064,-0.138,0.117,0.021,-0.079,0.051,0.012,-0.091,0.018,-0.155,0.1,-0.254,-0.093
0.962,0.173,0.108,-0.064,-0.141,0.118,0.022,-0.083,0.053,0.014,-0.09,0.02,-0.155,0.101,-0.252,-0.093
0.963,0.168,0.105,-0.062,-0.136,0.115,0.021,-0.082,0.053,0.014,-0.09,0.018,-0.157,0.1,-0.253,-0.094
0.964,0.167,0.104,-0.062,-0.135,0.115,0.021,-0.077,0.051,0.013,-0.09,0.019,-0.156,0.101,-0.257,-0.094
0.965,0.169,0.103,-0.066,-0.136,0.117,0.019,-0.081,0.048,0.011,-0.091,0.018,-0.156,0.099,-0.257,-0.094
0.966,0.168,0.103,-0.065,-0.135,0.117,0.019,-0.076,0.05,0.011,-0.092,0.019,-0.157,0.098,-0.255,-0.096
0.967,0.17,0.105,-0.065,-0.138,0.117,0.021,-0.081,0.049,0.011,-0.091,0.019,-0.155,0.1,-0.251,-0.095
0.968,0.172,0.108,-0.064,-0.14,0.118,0.022,-0.082,0.054,0.014,-0.089,0.021,-0.154,0.102,-0.251,-0.093
0.969,0.173,0.107,-0.066,-0.14,0.12,0.021,-0.082,0.056,0.013,-0.09,0.02,-0.153,0.102,-0.252,-0.094
0.97,0.171,0.106,-0.065,-0.139,0.117,0.021,-0.083,0.052,0.011,-0.09,0.019,-0.153,0.099,-0.249,-0.095
0.971,0.169,0.105,-0.064,-0.137,0.117,0.021,-0.079,0.052,0.01,-0.09,0.021,-0.154,0.098,-0.251,-0.096
0.972,0.173,0.105,-0.068,-0.14,0.12,0.019,-0.083,0.048,0.007,-0.094,0.019,-0.158,0.099,-0.254,-0.093
0.973,0.17,0.103,-0.066,-0.137,0.118,0.019,-0.084,0.049,0.01,-0.092,0.018,-0.16,0.096,-0.251,-0.096
0.974,0.165,0.098,-0.067,-0.131,0.116,0.015,-0.078,0.051,0.012,-0.091,0.018,-0.161,0.094,-0.251,-0.097
0.975,0.17,0.1,-0.069,-0.135,0.119,0.015,-0.086,0.046,0.011,-0.094,0.015,-0.161,0.093,-0.254,-0.095
0.976,0.172,0.101,-0.071,-0.136,0.121,0.015,-0.081,0.046,0.009,-0.093,0.015,-0.161,0.094,-0.257,-0.094
0.977,0.165,0.099,-0.066,-0.132,0.116,0.017,-0.075,0.049,0.011,-0.092,0.013,-0.162,0.09,-0.253,-0.096
0.978,0.166,0.102,-0.064,-0.134,0.115,0.019,-0.085,0.045,0.01,-0.096,0.013,-0.164,0.088,-0.252,-0.097
0.979,0.171,0.106,-0.065,-0.138,0.118,0.021,-0.081,0.048,0.011,-0.093,0.017,-0.163,0.091,-0.252,-0.097
0.98,0.171,0.105,-0.065,-0.138,0.118,0.02,-0.083,0.048,0.011,-0.094,0.017,-0.165,0.092,-0.253,-0.095
0.981,0.173,0.105,-0.068,-0.139,0.121,0.018,-0.082,0.047,0.011,-0.094,0.016,-0.165,0.096,-0.252,-0.094
0.982,0.174,0.106,-0.069,-0.14,0.121,0.018,-0.081,0.047,0.011,-0.093,0.016,-0.165,0.098,-0.253,-0.094
0.983,0.172,0.105,-0.067,-0.138,0.119,0.019,-0.085,0.046,0.006,-0.097,0.014,-0.166,0.097,-0.255,-0.092
0.984,0.17,0.107,-0.063,-0.139,0.117,0.022,-0.086,0.046,0.006,-0.097,0.013,-0.166,0.096,-0.252,-0.094
0.985,0.172,0.107,-0.064,-0.139,0.117,0.022,-0.087,0.044,0.007,-0.098,0.015,-0.166,0.095,-0.252,-0.095
0.986,0.173,0.104,-0.069,-0.139,0.121,0.018,-0.088,0.042,0.006,-0.1,0.013,-0.165,0.096,-0.252,-0.093
0.987,0.172,0.102,-0.069,-0.137,0.121,0.017,-0.088,0.041,0.006,-0.1,0.012,-0.167,0.095,-0.251,-0.093
0.988,0.169,0.103,-0.065,-0.137,0.117,0.019,-0.085,0.043,0.007,-0.099,0.015,-0.167,0.093,-0.245,-0.095
0.989,0.171,0.105,-0.065,-0.138,0.118,0.021,-0.086,0.046,0.01,-0.097,0.017,-0.165,0.096,-0.244,-0.095
0.99,0.172,0.107,-0.066,-0.14,0.119,0.021,-0.09,0.045,0.011,-0.096,0.019,-0.162,0.098,-0.246,-0.094
0.991,0.172,0.108,-0.064,-0.141,0.118,0.022,-0.086,0.046,0.011,-0.096,0.02,-0.161,0.096,-0.246,-0.093
0.992,0.172,0.107,-0.065,-0.14,0.119,0.021,-0.086,0.045,0.011,-0.095,0.021,-0.161,0.096,-0.246,-0.094
0.993,0.175,0.108,-0.067,-0.141,0.121,0.021,-0.082,0.046,0.012,-0.095,0.022,-0.159,0.098,-0.249,-0.096
0.994,0.176,0.109,-0.067,-0.142,0.122,0.021,-0.083,0.046,0.009,-0.094,0.021,-0.159,0.099,-0.253,-0.095
0.995,0.176,0.107,-0.069,-0.141,0.122,0.019,-0.086,0.043,0.009,-0.096,0.021,-0.158,0.099,-0.247,-0.095
0.996,0.175,0.107,-0.068,-0.141,0.121,0.019,-0.083,0.046,0.011,-0.096,0.02,-0.162,0.095,-0.246,-0.096
0.997,0.173,0.105,-0.068,-0.139,0.12,0.019,-0.085,0.046,0.011,-0.093,0.021,-0.162,0.094,-0.25,-0.097
0.998,0.174,0.106,-0.068,-0.14,0.121,0.019,-0.082,0.049,0.013,-0.091,0.022,-0.158,0.099,-0.248,-0.095
0.999,0.173,0.106,-0.067,-0.14,0.12,0.02,-0.082,0.05,0.013,-0.092,0.019,-0.161,0.096,-0.249,-0.093
1,0.172,0.105,-0.067,-0.139,0.12,0.019,-0.085,0.047,0.012,-0.094,0.018,-0.164,0.093,-0.25,-0.093
1.001,0.166,0.101,-0.065,-0.134,0.116,0.018,-0.086,0.046,0.01,-0.097,0.015,-0.165,0.092,-0.254,-0.093
1.002,0.167,0.101,-0.066,-0.134,0.116,0.018,-0.085,0.046,0.009,-0.096,0.015,-0.164,0.095,-0.252,-0.092
1.003,0.171,0.105,-0.066,-0.137,0.118,0.02,-0.084,0.048,0.011,-0.095,0.017,-0.161,0.098,-0.25,-0.091
1.004,0.171,0.105,-0.066,-0.138,0.118,0.02,-0.085,0.048,0.011,-0.095,0.015,-0.162,0.096,-0.256,-0.091
1.005,0.172,0.111,-0.061,-0.141,0.117,0.025,-0.087,0.045,0.009,-0.095,0.015,-0.164,0.096,-0.249,-0.09
1.006,0.174,0.113,-0.061,-0.143,0.118,0.025,-0.087,0.045,0.006,-0.096,0.015,-0.163,0.097,-0.242,-0.091
1.007,0.175,0.11,-0.065,-0.142,0.12,0.022,-0.09,0.044,0.007,-0.098,0.013,-0.165,0.096,-0.246,-0.092
1.008,0.172,0.109,-0.063,-0.14,0.117,0.023,-0.093,0.043,0.006,-0.098,0.011,-0.166,0.095,-0.248,-0.091
1.009,0.175,0.111,-0.064,-0.143,0.12,0.024,-0.091,0.043,0.007,-0.098,0.013,-0.163,0.099,-0.246,-0.091
1.01,0.173,0.112,-0.062,-0.142,0.118,0.025,-0.089,0.045,0.007,-0.096,0.013,-0.164,0.097,-0.242,-0.092
1.011,0.171,0.11,-0.061,-0.14,0.117,0.024,-0.09,0.043,0.004,-0.098,0.012,-0.165,0.095,-0.245,-0.091
1.012,0.172,0.11,-0.062,-0.141,0.117,0.024,-0.095,0.041,0.004,-0.098,0.012,-0.164,0.097,-0.249,-0.09
1.013,0.168,0.109,-0.059,-0.138,0.114,0.025,-0.091,0.043,0.007,-0.094,0.015,-0.163,0.097,-0.245,-0.093
1.014,0.168,0.11,-0.058,-0.139,0.113,0.026,-0.086,0.044,0.007,-0.094,0.013,-0.164,0.095,-0.243,-0.093
1.015,0.168,0.11,-0.059,-0.139,0.114,0.025,-0.087,0.048,0.009,-0.091,0.015,-0.162,0.095,-0.244,-0.093
1.016,0.169,0.11,-0.059,-0.139,0.114,0.025,-0.085,0.05,0.011,-0.092,0.015,-0.161,0.095,-0.247,-0.093
1.017,0.169,0.11,-0.058,-0.139,0.114,0.026,-0.086,0.045,0.008,-0.093,0.012,-0.162,0.092,-0.249,-0.093
1.018,0.165,0.107,-0.058,-0.136,0.112,0.025,-0.091,0.042,0.007,-0.095,0.013,-0.163,0.091,-0.247,-0.093
1.019,0.171,0.108,-0.064,-0.139,0.117,0.022,-0.09,0.043,0.009,-0.093,0.013,-0.161,0.092,-0.249,-0.093
1.02,0.171,0.107,-0.064,-0.139,0.117,0.021,-0.086,0.046,0.011,-0.092,0.012,-0.16,0.092,-0.252,-0.092
1.021,0.165,0.105,-0.059,-0.135,0.112,0.023,-0.087,0.043,0.009,-0.093,0.011,-0.162,0.092,-0.253,-0.091
1.022,0.166,0.11,-0.057,-0.138,0.112,0.026,-0.086,0.043,0.008,-0.092,0.013,-0.16,0.093,-0.249,-0.091
1.023,0.168,0.112,-0.055,-0.14,0.112,0.029,-0.084,0.042,0.007,-0.095,0.009,-0.163,0.09,-0.242,-0.092
1.024,0.168,0.113,-0.055,-0.14,0.112,0.029,-0.09,0.04,0.005,-0.096,0.007,-0.165,0.089,-0.245,-0.091
1.025,0.172,0.117,-0.054,-0.144,0.113,0.032,-0.09,0.04,0.005,-0.096,0.009,-0.161,0.091,-0.243,-0.09
1.026,0.171,0.117,-0.053,-0.144,0.113,0.032,-0.086,0.043,0.006,-0.095,0.009,-0.161,0.091,-0.244,-0.09
1.027,0.169,0.115,-0.054,-0.141,0.112,0.03,-0.086,0.043,0.007,-0.094,0.01,-0.161,0.091,-0.247,-0.09
1.028,0.167,0.112,-0.056,-0.139,0.112,0.029,-0.088,0.038,0.003,-0.097,0.009,-0.163,0.089,-0.246,-0.09
1.029,0.167,0.107,-0.059,-0.137,0.114,0.024,-0.092,0.038,0.002,-0.098,0.007,-0.166,0.09,-0.248,-0.09
1.03,0.165,0.104,-0.06,-0.134,0.113,0.022,-0.089,0.041,0.003,-0.1,0.008,-0.166,0.09,-0.244,-0.091
1.031,0.155,0.099,-0.057,-0.127,0.106,0.021,-0.086,0.038,0.001,-0.101,0.008,-0.165,0.089,-0.244,-0.091
1.032,0.161,0.106,-0.054,-0.134,0.108,0.026,-0.09,0.043,0.005,-0.096,0.014,-0.16,0.093,-0.242,-0.09
1.033,0.171,0.115,-0.056,-0.142,0.114,0.03,-0.087,0.047,0.009,-0.09,0.018,-0.154,0.098,-0.243,-0.091
1.034,0.17,0.113,-0.058,-0.141,0.114,0.028,-0.085,0.044,0.007,-0.093,0.015,-0.156,0.097,-0.249,-0.09
1.035,0.164,0.108,-0.055,-0.136,0.11,0.027,-0.086,0.043,0.007,-0.095,0.013,-0.159,0.094,-0.252,-0.09
1.036,0.159,0.104,-0.055,-0.131,0.107,0.025,-0.086,0.043,0.006,-0.097,0.013,-0.162,0.094,-0.25,-0.089
1.037,0.157,0.101,-0.056,-0.129,0.106,0.022,-0.088,0.041,0.005,-0.098,0.013,-0.161,0.096,-0.255,-0.09
1.038,0.156,0.099,-0.057,-0.128,0.106,0.021,-0.089,0.041,0.004,-0.098,0.012,-0.161,0.095,-0.253,-0.092
1.039,0.164,0.106,-0.058,-0.135,0.111,0.024,-0.086,0.045,0.006,-0.096,0.015,-0.159,0.096,-0.246,-0.089
1.04,0.164,0.109,-0.054,-0.136,0.11,0.027,-0.086,0.044,0.005,-0.096,0.014,-0.16,0.095,-0.251,-0.089
1.041,0.157,0.105,-0.051,-0.131,0.104,0.027,-0.087,0.043,0.002,-0.099,0.012,-0.162,0.093,-0.245,-0.09
1.042,0.161,0.106,-0.054,-0.134,0.108,0.026,-0.086,0.044,0.004,-0.097,0.012,-0.161,0.094,-0.245,-0.089
1.043,0.157,0.103,-0.053,-0.13,0.105,0.025,-0.09,0.042,0,-0.099,0.008,-0.162,0.095,-0.247,-0.089
1.044,0.151,0.1,-0.052,-0.126,0.102,0.024,-0.092,0.041,-0.003,-0.101,0.005,-0.165,0.092,-0.246,-0.089
1.045,0.155,0.105,-0.05,-0.13,0.103,0.028,-0.087,0.042,-0.001,-0.101,0.005,-0.167,0.089,-0.248,-0.09
1.046,0.163,0.111,-0.051,-0.137,0.107,0.03,-0.086,0.041,-0.001,-0.099,0.009,-0.164,0.094,-0.246,-0.089
1.047,0.162,0.107,-0.055,-0.134,0.109,0.026,-0.09,0.04,-0.002,-0.098,0.007,-0.166,0.095,-0.245,-0.088
1.048,0.146,0.1,-0.047,-0.123,0.097,0.026,-0.093,0.033,-0.008,-0.102,0.004,-0.169,0.089,-0.249,-0.087
1.049,0.151,0.106,-0.044,-0.129,0.098,0.031,-0.084,0.04,0.001,-0.093,0.009,-0.163,0.092,-0.249,-0.088
1.05,0.16,0.114,-0.046,-0.137,0.103,0.034,-0.075,0.051,0.006,-0.088,0.016,-0.158,0.097,-0.241,-0.092
1.051,0.161,0.11,-0.051,-0.135,0.105,0.029,-0.086,0.046,0.001,-0.092,0.014,-0.16,0.098,-0.244,-0.09
1.052,0.158,0.107,-0.051,-0.133,0.104,0.029,-0.092,0.043,-0.001,-0.096,0.009,-0.164,0.097,-0.247,-0.088
1.053,0.155,0.106,-0.05,-0.131,0.103,0.029,-0.092,0.041,-0.002,-0.097,0.008,-0.163,0.096,-0.25,-0.088
1.054,0.158,0.105,-0.052,-0.132,0.105,0.026,-0.09,0.042,-0.001,-0.095,0.009,-0.162,0.097,-0.251,-0.088
1.055,0.155,0.11,-0.046,-0.133,0.101,0.032,-0.087,0.043,0.001,-0.093,0.012,-0.159,0.096,-0.242,-0.091
1.056,0.157,0.111,-0.046,-0.134,0.102,0.032,-0.084,0.043,0.002,-0.092,0.013,-0.16,0.098,-0.241,-0.091
1.057,0.155,0.106,-0.05,-0.131,0.103,0.028,-0.085,0.042,-0.001,-0.097,0.009,-0.166,0.095,-0.243,-0.09
1.058,0.155,0.105,-0.051,-0.13,0.103,0.028,-0.089,0.04,-0.002,-0.097,0.01,-0.164,0.096,-0.246,-0.091
1.059,0.159,0.103,-0.056,-0.131,0.107,0.024,-0.093,0.037,-0.003,-0.098,0.009,-0.162,0.098,-0.253,-0.088
1.06,0.163,0.105,-0.058,-0.134,0.111,0.024,-0.095,0.038,-0.003,-0.098,0.011,-0.161,0.099,-0.251,-0.088
1.061,0.166,0.11,-0.056,-0.138,0.111,0.027,-0.089,0.043,0.001,-0.097,0.013,-0.161,0.101,-0.249,-0.088
1.062,0.167,0.11,-0.057,-0.138,0.112,0.026,-0.088,0.04,-0.002,-0.099,0.012,-0.161,0.1,-0.247,-0.088
1.063,0.161,0.107,-0.054,-0.134,0.107,0.026,-0.09,0.038,-0.004,-0.1,0.01,-0.163,0.098,-0.245,-0.088
1.064,0.155,0.107,-0.048,-0.132,0.102,0.03,-0.086,0.041,-0.002,-0.099,0.009,-0.163,0.099,-0.244,-0.088
1.065,0.154,0.104,-0.05,-0.129,0.102,0.027,-0.089,0.037,-0.004,-0.099,0.009,-0.162,0.099,-0.245,-0.087
1.066,0.154,0.102,-0.051,-0.129,0.103,0.025,-0.091,0.035,-0.004,-0.097,0.01,-0.161,0.099,-0.246,-0.087
1.067,0.155,0.106,-0.05,-0.131,0.103,0.028,-0.085,0.041,-0.003,-0.096,0.011,-0.161,0.099,-0.248,-0.089
1.068,0.159,0.105,-0.054,-0.132,0.107,0.025,-0.089,0.039,-0.004,-0.099,0.007,-0.163,0.098,-0.247,-0.088
1.069,0.163,0.107,-0.056,-0.135,0.11,0.026,-0.087,0.041,-0.003,-0.098,0.01,-0.162,0.101,-0.248,-0.087
1.07,0.159,0.108,-0.051,-0.134,0.105,0.029,-0.086,0.043,-0.004,-0.097,0.011,-0.161,0.101,-0.245,-0.087
1.071,0.158,0.107,-0.051,-0.133,0.104,0.029,-0.086,0.042,-0.004,-0.096,0.009,-0.164,0.097,-0.242,-0.088
1.072,0.158,0.107,-0.051,-0.132,0.104,0.029,-0.086,0.042,-0.004,-0.097,0.006,-0.164,0.096,-0.25,-0.089
1.073,0.16,0.106,-0.053,-0.133,0.106,0.027,-0.09,0.04,-0.006,-0.1,0.007,-0.164,0.098,-0.25,-0.088
1.074,0.164,0.107,-0.056,-0.136,0.11,0.026,-0.089,0.042,-0.006,-0.099,0.009,-0.164,0.099,-0.248,-0.087
1.075,0.162,0.107,-0.054,-0.134,0.108,0.026,-0.093,0.039,-0.008,-0.099,0.007,-0.165,0.096,-0.245,-0.088
1.076,0.167,0.108,-0.059,-0.138,0.113,0.025,-0.093,0.037,-0.008,-0.1,0.008,-0.164,0.099,-0.249,-0.088
1.077,0.17,0.111,-0.059,-0.14,0.114,0.026,-0.093,0.037,-0.009,-0.101,0.007,-0.164,0.098,-0.252,-0.087
1.078,0.164,0.111,-0.053,-0.137,0.108,0.029,-0.091,0.038,-0.009,-0.1,0.009,-0.166,0.096,-0.246,-0.089
1.079,0.159,0.108,-0.051,-0.133,0.104,0.029,-0.092,0.038,-0.007,-0.102,0.009,-0.167,0.096,-0.247,-0.089
1.08,0.156,0.103,-0.052,-0.13,0.104,0.025,-0.1,0.036,-0.01,-0.104,0.006,-0.168,0.095,-0.248,-0.088
1.081,0.161,0.105,-0.056,-0.133,0.108,0.025,-0.091,0.038,-0.009,-0.103,0.009,-0.166,0.098,-0.249,-0.089
1.082,0.164,0.107,-0.056,-0.135,0.11,0.025,-0.087,0.038,-0.007,-0.102,0.011,-0.163,0.099,-0.247,-0.09
1.083,0.165,0.111,-0.054,-0.138,0.11,0.028,-0.089,0.039,-0.008,-0.101,0.011,-0.165,0.098,-0.241,-0.091
1.084,0.16,0.107,-0.052,-0.134,0.106,0.028,-0.088,0.036,-0.009,-0.104,0.006,-0.172,0.09,-0.245,-0.09
1.085,0.156,0.105,-0.051,-0.131,0.104,0.027,-0.088,0.037,-0.008,-0.104,0.005,-0.172,0.087,-0.25,-0.09
1.086,0.162,0.111,-0.051,-0.136,0.106,0.03,-0.084,0.043,-0.004,-0.101,0.011,-0.167,0.092,-0.247,-0.091
1.087,0.163,0.11,-0.053,-0.136,0.108,0.028,-0.089,0.041,-0.004,-0.102,0.011,-0.167,0.093,-0.245,-0.09
1.088,0.159,0.108,-0.05,-0.134,0.104,0.029,-0.098,0.038,-0.007,-0.105,0.007,-0.17,0.091,-0.243,-0.09
1.089,0.155,0.11,-0.045,-0.133,0.101,0.033,-0.091,0.038,-0.007,-0.105,0.007,-0.172,0.09,-0.24,-0.092
1.09,0.157,0.113,-0.044,-0.135,0.101,0.034,-0.086,0.04,-0.005,-0.104,0.009,-0.169,0.092,-0.239,-0.092
1.091,0.162,0.118,-0.043,-0.14,0.103,0.037,-0.091,0.04,-0.003,-0.101,0.011,-0.167,0.095,-0.239,-0.091
1.092,0.166,0.12,-0.045,-0.142,0.106,0.037,-0.091,0.043,-0.001,-0.098,0.013,-0.164,0.097,-0.236,-0.092
1.093,0.164,0.119,-0.045,-0.141,0.104,0.037,-0.088,0.047,0.003,-0.095,0.015,-0.162,0.1,-0.234,-0.096
1.094,0.161,0.12,-0.041,-0.14,0.101,0.04,-0.084,0.049,0.004,-0.092,0.017,-0.161,0.1,-0.235,-0.098
1.095,0.171,0.129,-0.042,-0.149,0.106,0.043,-0.083,0.052,0.009,-0.089,0.019,-0.157,0.104,-0.233,-0.098
1.096,0.175,0.135,-0.041,-0.154,0.108,0.047,-0.084,0.052,0.009,-0.087,0.022,-0.155,0.106,-0.228,-0.099
1.097,0.174,0.133,-0.041,-0.153,0.108,0.046,-0.081,0.053,0.009,-0.086,0.021,-0.155,0.105,-0.229,-0.099
1.098,0.179,0.138,-0.042,-0.158,0.111,0.048,-0.084,0.054,0.009,-0.085,0.024,-0.153,0.107,-0.23,-0.098
1.099,0.18,0.139,-0.042,-0.159,0.111,0.049,-0.09,0.051,0.006,-0.085,0.025,-0.151,0.108,-0.232,-0.097
1.1,0.184,0.142,-0.042,-0.163,0.114,0.05,-0.089,0.053,0.009,-0.081,0.029,-0.148,0.113,-0.232,-0.1
1.101,0.184,0.146,-0.037,-0.166,0.111,0.054,-0.085,0.061,0.015,-0.075,0.032,-0.147,0.114,-0.222,-0.102
1.102,0.183,0.148,-0.035,-0.165,0.11,0.056,-0.086,0.056,0.015,-0.077,0.028,-0.148,0.113,-0.217,-0.102
1.103,0.184,0.155,-0.029,-0.17,0.107,0.064,-0.084,0.058,0.017,-0.075,0.031,-0.146,0.115,-0.215,-0.105
1.104,0.183,0.155,-0.029,-0.169,0.106,0.063,-0.083,0.064,0.018,-0.073,0.031,-0.147,0.115,-0.215,-0.107
1.105,0.189,0.156,-0.033,-0.172,0.111,0.061,-0.086,0.059,0.017,-0.073,0.029,-0.148,0.114,-0.215,-0.106
1.106,0.191,0.161,-0.029,-0.175,0.11,0.066,-0.086,0.057,0.017,-0.072,0.031,-0.145,0.117,-0.211,-0.105
1.107,0.189,0.163,-0.026,-0.175,0.108,0.068,-0.086,0.054,0.013,-0.075,0.027,-0.146,0.115,-0.205,-0.103
1.108,0.192,0.168,-0.024,-0.18,0.108,0.072,-0.091,0.051,0.013,-0.077,0.026,-0.147,0.114,-0.203,-0.103
1.109,0.193,0.175,-0.018,-0.184,0.105,0.079,-0.086,0.055,0.017,-0.072,0.029,-0.144,0.116,-0.199,-0.105
1.11,0.189,0.18,-0.009,-0.184,0.099,0.086,-0.076,0.06,0.021,-0.068,0.03,-0.144,0.114,-0.188,-0.11
1.111,0.188,0.182,-0.005,-0.184,0.097,0.088,-0.078,0.059,0.021,-0.07,0.029,-0.145,0.111,-0.185,-0.111
1.112,0.184,0.179,-0.005,-0.182,0.095,0.087,-0.073,0.057,0.017,-0.072,0.026,-0.148,0.108,-0.186,-0.112
1.113,0.183,0.185,0.002,-0.184,0.091,0.093,-0.068,0.061,0.019,-0.069,0.029,-0.147,0.109,-0.179,-0.117
1.114,0.184,0.193,0.009,-0.188,0.087,0.101,-0.065,0.068,0.025,-0.064,0.033,-0.145,0.108,-0.168,-0.12
1.115,0.181,0.194,0.012,-0.187,0.085,0.103,-0.067,0.066,0.025,-0.065,0.032,-0.146,0.108,-0.167,-0.121
1.116,0.184,0.197,0.013,-0.19,0.086,0.104,-0.063,0.069,0.029,-0.061,0.034,-0.143,0.111,-0.172,-0.123
1.117,0.184,0.199,0.015,-0.191,0.085,0.106,-0.065,0.07,0.032,-0.058,0.035,-0.142,0.109,-0.168,-0.126
1.118,0.188,0.201,0.013,-0.195,0.088,0.107,-0.073,0.067,0.028,-0.059,0.035,-0.14,0.112,-0.168,-0.124
1.119,0.192,0.204,0.013,-0.198,0.09,0.108,-0.061,0.072,0.034,-0.057,0.037,-0.137,0.116,-0.168,-0.126
1.12,0.191,0.204,0.014,-0.197,0.088,0.109,-0.054,0.079,0.037,-0.056,0.037,-0.137,0.116,-0.166,-0.13
1.121,0.193,0.201,0.008,-0.197,0.093,0.104,-0.052,0.084,0.042,-0.051,0.041,-0.133,0.12,-0.166,-0.13
1.122,0.193,0.2,0.007,-0.196,0.093,0.103,-0.055,0.082,0.043,-0.05,0.043,-0.133,0.119,-0.169,-0.131
1.123,0.191,0.203,0.013,-0.197,0.089,0.107,-0.056,0.079,0.041,-0.052,0.042,-0.137,0.117,-0.169,-0.131
1.124,0.194,0.207,0.013,-0.201,0.09,0.111,-0.062,0.077,0.043,-0.051,0.045,-0.134,0.118,-0.162,-0.132
1.125,0.198,0.216,0.018,-0.206,0.089,0.117,-0.067,0.083,0.049,-0.043,0.052,-0.129,0.121,-0.148,-0.133
1.126,0.202,0.23,0.029,-0.215,0.086,0.13,-0.062,0.091,0.056,-0.035,0.059,-0.123,0.124,-0.134,-0.134
1.127,0.208,0.244,0.035,-0.226,0.086,0.14,-0.062,0.093,0.061,-0.031,0.064,-0.12,0.124,-0.127,-0.135
1.128,0.209,0.253,0.043,-0.231,0.084,0.147,-0.058,0.096,0.065,-0.025,0.067,-0.119,0.125,-0.122,-0.135
1.129,0.208,0.256,0.047,-0.232,0.081,0.151,-0.063,0.095,0.064,-0.025,0.067,-0.118,0.125,-0.119,-0.134
1.13,0.207,0.259,0.051,-0.233,0.078,0.155,-0.067,0.092,0.06,-0.026,0.069,-0.117,0.124,-0.111,-0.133
1.131,0.206,0.257,0.051,-0.231,0.077,0.154,-0.067,0.092,0.06,-0.026,0.067,-0.117,0.123,-0.107,-0.132
1.132,0.208,0.258,0.049,-0.233,0.08,0.153,-0.071,0.088,0.059,-0.029,0.066,-0.116,0.121,-0.11,-0.128
1.133,0.21,0.261,0.051,-0.235,0.08,0.155,-0.079,0.082,0.052,-0.034,0.067,-0.114,0.121,-0.106,-0.122
1.134,0.211,0.26,0.049,-0.235,0.082,0.154,-0.083,0.077,0.048,-0.037,0.064,-0.114,0.12,-0.107,-0.118
1.135,0.213,0.265,0.051,-0.238,0.081,0.158,-0.085,0.073,0.042,-0.042,0.06,-0.114,0.118,-0.102,-0.114
1.136,0.212,0.263,0.05,-0.237,0.082,0.157,-0.096,0.062,0.034,-0.049,0.056,-0.117,0.114,-0.102,-0.111
1.137,0.214,0.264,0.05,-0.238,0.082,0.157,-0.104,0.053,0.029,-0.052,0.053,-0.118,0.113,-0.102,-0.109
1.138,0.22,0.271,0.051,-0.245,0.085,0.162,-0.115,0.051,0.026,-0.053,0.057,-0.114,0.118,-0.099,-0.104
1.139,0.215,0.268,0.052,-0.241,0.082,0.16,-0.128,0.042,0.021,-0.058,0.057,-0.113,0.122,-0.1,-0.099
1.14,0.216,0.269,0.052,-0.242,0.083,0.161,-0.153,0.029,0.013,-0.062,0.059,-0.107,0.125,-0.098,-0.092
1.141,0.229,0.277,0.049,-0.252,0.09,0.163,-0.168,0.022,0.011,-0.061,0.065,-0.101,0.131,-0.099,-0.087
1.142,0.229,0.277,0.047,-0.253,0.091,0.162,-0.175,0.013,0.008,-0.065,0.067,-0.1,0.136,-0.102,-0.084
1.143,0.226,0.27,0.044,-0.247,0.091,0.158,-0.194,-0.002,-0.004,-0.073,0.061,-0.103,0.135,-0.109,-0.076
1.144,0.224,0.266,0.042,-0.244,0.091,0.153,-0.195,-0.004,-0.009,-0.079,0.057,-0.109,0.13,-0.114,-0.071
1.145,0.228,0.262,0.035,-0.244,0.097,0.148,-0.196,-0.006,-0.011,-0.082,0.056,-0.107,0.131,-0.119,-0.067
1.146,0.233,0.265,0.032,-0.248,0.101,0.148,-0.198,-0.009,-0.013,-0.083,0.056,-0.105,0.135,-0.121,-0.065
1.147,0.237,0.275,0.037,-0.256,0.101,0.155,-0.195,-0.009,-0.01,-0.079,0.059,-0.102,0.137,-0.115,-0.066
1.148,0.24,0.281,0.042,-0.261,0.1,0.162,-0.197,-0.01,-0.011,-0.077,0.062,-0.1,0.137,-0.108,-0.068
1.149,0.234,0.278,0.044,-0.256,0.095,0.161,-0.197,-0.012,-0.013,-0.083,0.059,-0.102,0.134,-0.111,-0.067
1.15,0.229,0.275,0.046,-0.252,0.091,0.161,-0.197,-0.015,-0.017,-0.085,0.056,-0.104,0.135,-0.107,-0.063
1.151,0.229,0.28,0.051,-0.254,0.089,0.165,-0.191,-0.013,-0.015,-0.083,0.058,-0.103,0.134,-0.098,-0.067
1.152,0.234,0.282,0.049,-0.258,0.093,0.165,-0.184,-0.006,-0.011,-0.08,0.059,-0.103,0.136,-0.101,-0.07
1.153,0.231,0.275,0.044,-0.253,0.093,0.16,-0.184,-0.009,-0.015,-0.085,0.054,-0.108,0.135,-0.107,-0.069
1.154,0.224,0.267,0.043,-0.245,0.091,0.155,-0.182,-0.011,-0.018,-0.086,0.053,-0.11,0.132,-0.112,-0.072
1.155,0.228,0.269,0.041,-0.248,0.094,0.155,-0.177,-0.005,-0.013,-0.082,0.053,-0.108,0.132,-0.117,-0.072
1.156,0.23,0.266,0.036,-0.248,0.097,0.151,-0.172,-0.003,-0.013,-0.08,0.053,-0.111,0.131,-0.118,-0.074
1.157,0.23,0.257,0.027,-0.242,0.102,0.142,-0.167,-0.002,-0.013,-0.081,0.051,-0.114,0.133,-0.121,-0.074
1.158,0.225,0.241,0.017,-0.233,0.104,0.13,-0.172,-0.002,-0.015,-0.084,0.047,-0.117,0.133,-0.129,-0.073
1.159,0.229,0.239,0.011,-0.234,0.109,0.125,-0.173,0.001,-0.013,-0.083,0.048,-0.116,0.137,-0.14,-0.074
1.16,0.237,0.241,0.005,-0.239,0.116,0.123,-0.171,-0.001,-0.015,-0.084,0.049,-0.112,0.14,-0.15,-0.07
1.161,0.238,0.235,-0.002,-0.236,0.12,0.117,-0.184,-0.007,-0.021,-0.087,0.049,-0.111,0.142,-0.154,-0.067
1.162,0.24,0.232,-0.009,-0.236,0.125,0.111,-0.175,-0.005,-0.021,-0.088,0.047,-0.109,0.145,-0.15,-0.065
1.163,0.233,0.226,-0.007,-0.229,0.12,0.109,-0.171,-0.007,-0.025,-0.09,0.043,-0.111,0.142,-0.149,-0.062
1.164,0.236,0.227,-0.009,-0.231,0.122,0.109,-0.179,-0.007,-0.022,-0.088,0.046,-0.11,0.144,-0.156,-0.064
1.165,0.246,0.234,-0.013,-0.24,0.13,0.111,-0.171,0.003,-0.013,-0.078,0.054,-0.104,0.154,-0.157,-0.066
1.166,0.244,0.238,-0.006,-0.241,0.126,0.116,-0.165,0.011,-0.005,-0.071,0.06,-0.1,0.156,-0.148,-0.072
1.167,0.247,0.236,-0.011,-0.242,0.13,0.113,-0.163,0.011,-0.004,-0.068,0.064,-0.097,0.157,-0.147,-0.075
1.168,0.246,0.232,-0.015,-0.239,0.132,0.108,-0.163,0.01,-0.009,-0.071,0.061,-0.097,0.158,-0.155,-0.074
1.169,0.243,0.228,-0.016,-0.235,0.13,0.105,-0.163,0.006,-0.012,-0.075,0.056,-0.102,0.153,-0.159,-0.072
1.17,0.245,0.224,-0.022,-0.234,0.134,0.101,-0.162,0.003,-0.013,-0.076,0.056,-0.101,0.155,-0.165,-0.07
1.171,0.243,0.222,-0.021,-0.232,0.132,0.101,-0.159,0.009,-0.009,-0.072,0.059,-0.098,0.157,-0.165,-0.07
1.172,0.244,0.225,-0.019,-0.234,0.132,0.103,-0.154,0.013,-0.005,-0.07,0.064,-0.095,0.158,-0.159,-0.071
1.173,0.243,0.225,-0.019,-0.234,0.132,0.103,-0.153,0.013,-0.005,-0.07,0.065,-0.093,0.158,-0.159,-0.073
1.174,0.237,0.223,-0.015,-0.23,0.127,0.103,-0.147,0.02,0.001,-0.064,0.068,-0.094,0.157,-0.157,-0.081
1.175,0.237,0.222,-0.015,-0.229,0.127,0.103,-0.143,0.024,0.004,-0.06,0.07,-0.092,0.159,-0.159,-0.086
1.176,0.236,0.22,-0.017,-0.228,0.127,0.102,-0.138,0.032,0.014,-0.053,0.075,-0.09,0.16,-0.157,-0.092
1.177,0.234,0.22,-0.015,-0.227,0.125,0.102,-0.126,0.043,0.024,-0.043,0.08,-0.09,0.161,-0.162,-0.1
1.178,0.231,0.213,-0.017,-0.222,0.124,0.098,-0.119,0.048,0.027,-0.04,0.08,-0.092,0.158,-0.166,-0.104
1.179,0.226,0.205,-0.021,-0.215,0.124,0.092,-0.113,0.053,0.03,-0.04,0.078,-0.095,0.155,-0.165,-0.108
1.18,0.222,0.2,-0.022,-0.21,0.122,0.088,-0.11,0.054,0.028,-0.043,0.075,-0.097,0.152,-0.169,-0.111
1.181,0.213,0.192,-0.021,-0.203,0.118,0.085,-0.105,0.054,0.026,-0.045,0.07,-0.103,0.146,-0.172,-0.111
1.182,0.203,0.182,-0.021,-0.193,0.113,0.081,-0.102,0.053,0.024,-0.051,0.059,-0.113,0.138,-0.183,-0.11
