'Elapsed time','i','ii','iii','avr','avl','avf','v1','v2','v3','v4','v5','v6','vx','vy','vz'
'hh:mm:ss.mmm','mV','mV','mV','mV','mV','mV','mV','mV','mV','mV','mV','mV','mV','mV','mV'
0,0.021,-0.976,-0.997,0.478,0.508,-0.987,0.613,0.794,0.774,0.83,0.729,0.742,-0.079,-0.801,0.093
0.001,0.021,-0.969,-0.99,0.474,0.505,-0.98,0.611,0.796,0.776,0.831,0.73,0.743,-0.08,-0.793,0.095
0.002,0.025,-0.964,-0.989,0.469,0.506,-0.976,0.611,0.8,0.779,0.836,0.733,0.745,-0.077,-0.787,0.093
0.003,0.024,-0.967,-0.99,0.471,0.506,-0.979,0.614,0.802,0.78,0.836,0.733,0.744,-0.077,-0.792,0.089
0.004,0.025,-0.965,-0.99,0.47,0.507,-0.977,0.614,0.804,0.782,0.837,0.734,0.746,-0.075,-0.795,0.09
0.005,0.031,-0.958,-0.989,0.464,0.509,-0.973,0.615,0.805,0.783,0.838,0.734,0.746,-0.074,-0.793,0.09
0.006,0.035,-0.956,-0.99,0.461,0.512,-0.973,0.61,0.805,0.783,0.836,0.733,0.745,-0.075,-0.789,0.09
0.007,0.034,-0.957,-0.992,0.462,0.512,-0.974,0.607,0.805,0.784,0.837,0.733,0.745,-0.074,-0.784,0.091
0.008,0.028,-0.96,-0.988,0.466,0.507,-0.974,0.608,0.807,0.787,0.84,0.735,0.747,-0.073,-0.784,0.092
0.009,0.029,-0.962,-0.991,0.467,0.51,-0.976,0.609,0.811,0.788,0.842,0.737,0.748,-0.071,-0.789,0.091
0.01,0.03,-0.969,-0.999,0.469,0.514,-0.984,0.61,0.811,0.789,0.844,0.736,0.748,-0.072,-0.793,0.093
0.011,0.026,-0.976,-1.002,0.475,0.513,-0.989,0.611,0.812,0.79,0.845,0.738,0.749,-0.073,-0.798,0.095
0.012,0.023,-0.978,-1.001,0.478,0.512,-0.99,0.612,0.815,0.791,0.847,0.74,0.748,-0.072,-0.803,0.093
0.013,0.024,-0.975,-0.999,0.476,0.511,-0.987,0.608,0.816,0.793,0.847,0.742,0.749,-0.071,-0.798,0.093
0.014,0.028,-0.974,-1.002,0.473,0.515,-0.988,0.606,0.815,0.795,0.848,0.743,0.749,-0.07,-0.797,0.092
0.015,0.028,-0.976,-1.004,0.474,0.515,-0.99,0.607,0.817,0.796,0.848,0.741,0.748,-0.071,-0.801,0.092
0.016,0.023,-0.979,-1.002,0.478,0.512,-0.991,0.609,0.822,0.8,0.851,0.745,0.75,-0.071,-0.805,0.092
0.017,0.024,-0.979,-1.002,0.478,0.512,-0.991,0.61,0.826,0.804,0.855,0.747,0.754,-0.069,-0.804,0.092
0.018,0.028,-0.973,-1.001,0.473,0.514,-0.987,0.609,0.828,0.804,0.855,0.746,0.753,-0.069,-0.797,0.092
0.019,0.033,-0.966,-0.999,0.467,0.515,-0.982,0.606,0.829,0.805,0.856,0.747,0.753,-0.067,-0.792,0.09
0.02,0.042,-0.958,-1,0.458,0.52,-0.979,0.603,0.83,0.805,0.855,0.749,0.754,-0.063,-0.785,0.09
0.021,0.045,-0.954,-0.999,0.455,0.522,-0.977,0.601,0.83,0.803,0.854,0.747,0.752,-0.062,-0.783,0.091
0.022,0.045,-0.954,-0.999,0.455,0.521,-0.976,0.601,0.831,0.805,0.857,0.748,0.752,-0.063,-0.782,0.09
0.023,0.042,-0.957,-0.998,0.458,0.519,-0.977,0.603,0.832,0.806,0.859,0.75,0.754,-0.062,-0.787,0.091
0.024,0.041,-0.955,-0.996,0.457,0.518,-0.975,0.603,0.834,0.807,0.859,0.749,0.755,-0.061,-0.788,0.091
0.025,0.045,-0.95,-0.995,0.452,0.519,-0.972,0.602,0.835,0.809,0.86,0.749,0.755,-0.059,-0.783,0.089
0.026,0.05,-0.95,-0.999,0.45,0.524,-0.975,0.597,0.832,0.806,0.857,0.748,0.754,-0.059,-0.782,0.091
0.027,0.052,-0.949,-1.001,0.449,0.526,-0.975,0.595,0.833,0.807,0.859,0.746,0.754,-0.058,-0.78,0.091
0.028,0.052,-0.951,-1.003,0.45,0.527,-0.977,0.598,0.836,0.81,0.861,0.75,0.756,-0.059,-0.784,0.091
0.029,0.051,-0.954,-1.004,0.452,0.527,-0.979,0.599,0.841,0.812,0.862,0.752,0.759,-0.058,-0.788,0.092
0.03,0.049,-0.956,-1.004,0.454,0.526,-0.98,0.599,0.845,0.816,0.865,0.754,0.762,-0.057,-0.791,0.094
0.031,0.05,-0.96,-1.009,0.455,0.529,-0.984,0.6,0.846,0.818,0.867,0.758,0.765,-0.056,-0.794,0.093
0.032,0.048,-0.961,-1.009,0.457,0.528,-0.985,0.6,0.848,0.819,0.868,0.757,0.764,-0.054,-0.792,0.095
0.033,0.049,-0.963,-1.012,0.457,0.53,-0.987,0.599,0.849,0.818,0.868,0.757,0.764,-0.054,-0.795,0.093
0.034,0.053,-0.965,-1.018,0.457,0.535,-0.992,0.598,0.851,0.819,0.869,0.757,0.766,-0.052,-0.796,0.094
0.035,0.056,-0.965,-1.022,0.455,0.538,-0.993,0.596,0.852,0.818,0.868,0.758,0.766,-0.052,-0.795,0.096
0.036,0.052,-0.964,-1.015,0.456,0.533,-0.99,0.596,0.855,0.821,0.871,0.761,0.768,-0.051,-0.794,0.095
0.037,0.048,-0.963,-1.011,0.458,0.529,-0.987,0.599,0.858,0.824,0.871,0.763,0.769,-0.051,-0.794,0.095
0.038,0.051,-0.961,-1.012,0.455,0.532,-0.987,0.598,0.859,0.822,0.87,0.761,0.767,-0.052,-0.795,0.093
0.039,0.056,-0.956,-1.011,0.45,0.533,-0.983,0.594,0.857,0.822,0.87,0.76,0.768,-0.051,-0.79,0.095
0.04,0.06,-0.95,-1.01,0.445,0.535,-0.98,0.591,0.858,0.822,0.868,0.76,0.767,-0.049,-0.784,0.095
0.041,0.066,-0.945,-1.01,0.44,0.537,-0.978,0.587,0.857,0.819,0.868,0.759,0.766,-0.047,-0.783,0.095
0.042,0.068,-0.941,-1.009,0.437,0.538,-0.976,0.586,0.856,0.82,0.867,0.759,0.766,-0.046,-0.781,0.096
0.043,0.066,-0.945,-1.01,0.44,0.537,-0.977,0.589,0.86,0.822,0.868,0.761,0.768,-0.046,-0.785,0.098
0.044,0.068,-0.942,-1.01,0.438,0.539,-0.976,0.589,0.863,0.823,0.869,0.762,0.769,-0.045,-0.784,0.097
0.045,0.07,-0.938,-1.008,0.434,0.538,-0.973,0.588,0.863,0.824,0.869,0.76,0.768,-0.046,-0.779,0.096
0.046,0.075,-0.937,-1.012,0.431,0.543,-0.975,0.585,0.862,0.823,0.866,0.757,0.766,-0.046,-0.777,0.098
0.047,0.08,-0.934,-1.014,0.427,0.546,-0.974,0.581,0.862,0.821,0.864,0.756,0.765,-0.048,-0.775,0.099
0.048,0.075,-0.936,-1.012,0.43,0.543,-0.975,0.583,0.864,0.824,0.866,0.756,0.767,-0.047,-0.778,0.101
0.049,0.076,-0.939,-1.015,0.432,0.545,-0.977,0.581,0.865,0.825,0.866,0.757,0.768,-0.047,-0.78,0.102
0.05,0.071,-0.944,-1.015,0.437,0.542,-0.98,0.582,0.868,0.826,0.867,0.757,0.77,-0.047,-0.783,0.104
0.051,0.07,-0.948,-1.018,0.44,0.543,-0.983,0.583,0.871,0.827,0.869,0.758,0.771,-0.048,-0.786,0.104
0.052,0.072,-0.948,-1.02,0.438,0.545,-0.984,0.579,0.87,0.824,0.867,0.758,0.77,-0.048,-0.786,0.105
0.053,0.075,-0.943,-1.019,0.434,0.547,-0.981,0.578,0.87,0.824,0.865,0.756,0.77,-0.048,-0.784,0.104
0.054,0.08,-0.943,-1.022,0.431,0.55,-0.983,0.578,0.869,0.823,0.864,0.756,0.77,-0.049,-0.785,0.104
0.055,0.079,-0.946,-1.024,0.433,0.552,-0.986,0.576,0.868,0.821,0.864,0.756,0.772,-0.046,-0.786,0.108
0.056,0.077,-0.946,-1.024,0.434,0.55,-0.985,0.577,0.872,0.824,0.864,0.755,0.775,-0.047,-0.79,0.107
0.057,0.074,-0.945,-1.019,0.435,0.546,-0.982,0.577,0.874,0.824,0.865,0.757,0.775,-0.046,-0.789,0.106
0.058,0.08,-0.939,-1.019,0.43,0.549,-0.979,0.574,0.872,0.823,0.863,0.757,0.775,-0.043,-0.782,0.109
0.059,0.085,-0.933,-1.019,0.424,0.552,-0.976,0.572,0.871,0.822,0.863,0.756,0.774,-0.043,-0.779,0.109
0.06,0.086,-0.927,-1.014,0.42,0.55,-0.971,0.569,0.869,0.819,0.862,0.755,0.774,-0.041,-0.771,0.108
0.061,0.095,-0.923,-1.018,0.414,0.556,-0.971,0.565,0.868,0.818,0.859,0.753,0.774,-0.04,-0.77,0.11
0.062,0.102,-0.918,-1.02,0.408,0.561,-0.97,0.563,0.866,0.815,0.858,0.751,0.771,-0.04,-0.769,0.11
0.063,0.094,-0.921,-1.016,0.414,0.554,-0.969,0.566,0.869,0.815,0.857,0.751,0.773,-0.041,-0.769,0.112
0.064,0.091,-0.921,-1.012,0.415,0.551,-0.966,0.567,0.871,0.815,0.857,0.752,0.776,-0.04,-0.769,0.113
0.065,0.095,-0.914,-1.009,0.41,0.551,-0.962,0.565,0.869,0.812,0.854,0.752,0.776,-0.037,-0.766,0.113
0.066,0.099,-0.912,-1.012,0.407,0.555,-0.962,0.562,0.865,0.811,0.849,0.75,0.774,-0.038,-0.765,0.115
0.067,0.104,-0.91,-1.015,0.403,0.559,-0.963,0.557,0.864,0.808,0.847,0.748,0.772,-0.038,-0.762,0.116
0.068,0.102,-0.912,-1.014,0.406,0.557,-0.963,0.557,0.865,0.806,0.848,0.748,0.775,-0.04,-0.763,0.117
0.069,0.098,-0.912,-1.01,0.407,0.554,-0.962,0.559,0.864,0.806,0.847,0.747,0.775,-0.04,-0.763,0.119
0.07,0.096,-0.917,-1.012,0.411,0.553,-0.965,0.559,0.866,0.805,0.847,0.749,0.776,-0.04,-0.769,0.121
0.071,0.095,-0.921,-1.016,0.413,0.554,-0.969,0.558,0.867,0.804,0.847,0.75,0.779,-0.038,-0.772,0.122
0.072,0.096,-0.92,-1.015,0.412,0.555,-0.968,0.557,0.866,0.803,0.846,0.749,0.779,-0.038,-0.77,0.122
0.073,0.098,-0.919,-1.016,0.411,0.557,-0.968,0.557,0.865,0.802,0.845,0.749,0.78,-0.038,-0.77,0.121
0.074,0.1,-0.918,-1.018,0.409,0.558,-0.968,0.555,0.863,0.801,0.845,0.748,0.781,-0.035,-0.768,0.123
0.075,0.099,-0.917,-1.016,0.409,0.557,-0.967,0.552,0.863,0.798,0.844,0.749,0.783,-0.036,-0.768,0.126
0.076,0.099,-0.915,-1.014,0.408,0.556,-0.965,0.554,0.865,0.8,0.844,0.751,0.784,-0.036,-0.769,0.124
0.077,0.096,-0.915,-1.01,0.41,0.552,-0.963,0.557,0.867,0.802,0.845,0.753,0.787,-0.035,-0.769,0.123
0.078,0.099,-0.908,-1.007,0.405,0.552,-0.958,0.553,0.865,0.798,0.844,0.751,0.788,-0.034,-0.763,0.123
0.079,0.102,-0.904,-1.006,0.401,0.554,-0.956,0.551,0.863,0.796,0.842,0.75,0.788,-0.033,-0.756,0.123
0.08,0.108,-0.896,-1.004,0.394,0.556,-0.95,0.546,0.858,0.791,0.837,0.749,0.787,-0.032,-0.751,0.122
0.081,0.114,-0.888,-1.002,0.388,0.557,-0.945,0.541,0.856,0.789,0.835,0.747,0.784,-0.033,-0.746,0.122
0.082,0.114,-0.885,-0.999,0.386,0.556,-0.943,0.54,0.854,0.789,0.834,0.749,0.787,-0.031,-0.741,0.121
0.083,0.111,-0.884,-0.995,0.387,0.552,-0.94,0.541,0.855,0.787,0.833,0.749,0.789,-0.029,-0.741,0.122
0.084,0.108,-0.883,-0.992,0.388,0.549,-0.937,0.543,0.857,0.787,0.834,0.749,0.79,-0.029,-0.739,0.124
0.085,0.114,-0.877,-0.991,0.383,0.552,-0.934,0.541,0.854,0.785,0.833,0.749,0.792,-0.028,-0.733,0.124
0.086,0.117,-0.875,-0.992,0.38,0.554,-0.933,0.537,0.851,0.783,0.831,0.748,0.79,-0.03,-0.732,0.123
0.087,0.12,-0.871,-0.992,0.376,0.556,-0.931,0.533,0.85,0.78,0.828,0.748,0.791,-0.028,-0.729,0.124
0.088,0.118,-0.869,-0.987,0.376,0.552,-0.928,0.534,0.849,0.779,0.829,0.749,0.793,-0.027,-0.728,0.126
0.089,0.116,-0.872,-0.988,0.379,0.551,-0.93,0.537,0.849,0.78,0.83,0.749,0.794,-0.029,-0.729,0.126
0.09,0.109,-0.876,-0.985,0.384,0.546,-0.93,0.54,0.852,0.783,0.832,0.752,0.799,-0.029,-0.73,0.126
0.091,0.104,-0.877,-0.982,0.387,0.543,-0.929,0.543,0.855,0.783,0.836,0.758,0.804,-0.028,-0.732,0.124
0.092,0.107,-0.875,-0.982,0.384,0.544,-0.928,0.543,0.852,0.781,0.834,0.758,0.802,-0.028,-0.73,0.123
0.093,0.108,-0.873,-0.981,0.383,0.544,-0.926,0.541,0.849,0.781,0.834,0.76,0.802,-0.025,-0.726,0.122
0.094,0.111,-0.873,-0.984,0.381,0.547,-0.928,0.54,0.848,0.781,0.835,0.759,0.805,-0.022,-0.725,0.121
0.095,0.114,-0.87,-0.984,0.379,0.548,-0.927,0.541,0.847,0.779,0.834,0.757,0.805,-0.021,-0.722,0.121
0.096,0.111,-0.87,-0.98,0.38,0.545,-0.924,0.546,0.85,0.782,0.835,0.762,0.807,-0.021,-0.72,0.119
0.097,0.106,-0.869,-0.975,0.382,0.54,-0.921,0.549,0.853,0.786,0.839,0.763,0.81,-0.021,-0.719,0.117
0.098,0.11,-0.862,-0.972,0.376,0.541,-0.917,0.55,0.851,0.786,0.842,0.763,0.81,-0.019,-0.715,0.113
0.099,0.113,-0.856,-0.968,0.372,0.54,-0.912,0.552,0.848,0.786,0.84,0.764,0.809,-0.018,-0.709,0.111
0.1,0.114,-0.85,-0.964,0.368,0.538,-0.906,0.551,0.847,0.785,0.84,0.763,0.808,-0.018,-0.703,0.108
0.101,0.116,-0.846,-0.961,0.365,0.538,-0.903,0.552,0.844,0.783,0.84,0.761,0.808,-0.018,-0.7,0.105
0.102,0.114,-0.844,-0.957,0.365,0.535,-0.9,0.554,0.843,0.782,0.838,0.76,0.806,-0.018,-0.695,0.104
0.103,0.108,-0.845,-0.953,0.368,0.53,-0.899,0.557,0.845,0.782,0.838,0.761,0.805,-0.021,-0.697,0.102
0.104,0.101,-0.847,-0.947,0.373,0.523,-0.896,0.564,0.846,0.783,0.838,0.761,0.804,-0.025,-0.699,0.099
0.105,0.1,-0.846,-0.945,0.373,0.521,-0.895,0.568,0.845,0.784,0.838,0.762,0.805,-0.026,-0.696,0.096
0.106,0.103,-0.845,-0.948,0.371,0.525,-0.896,0.566,0.84,0.781,0.835,0.759,0.801,-0.029,-0.696,0.095
0.107,0.102,-0.847,-0.948,0.372,0.524,-0.897,0.568,0.837,0.777,0.833,0.754,0.798,-0.032,-0.694,0.097
0.108,0.095,-0.851,-0.945,0.379,0.519,-0.898,0.575,0.837,0.776,0.835,0.755,0.798,-0.034,-0.697,0.094
0.109,0.087,-0.857,-0.945,0.385,0.516,-0.901,0.579,0.838,0.777,0.834,0.753,0.797,-0.039,-0.703,0.091
0.11,0.08,-0.865,-0.945,0.393,0.512,-0.905,0.584,0.837,0.777,0.835,0.752,0.795,-0.043,-0.708,0.09
0.111,0.072,-0.872,-0.944,0.4,0.508,-0.908,0.589,0.836,0.778,0.834,0.754,0.794,-0.046,-0.711,0.089
0.112,0.065,-0.878,-0.944,0.407,0.503,-0.911,0.594,0.835,0.778,0.832,0.752,0.792,-0.049,-0.714,0.089
0.113,0.061,-0.882,-0.944,0.41,0.502,-0.913,0.596,0.833,0.773,0.83,0.749,0.789,-0.05,-0.717,0.087
0.114,0.061,-0.885,-0.946,0.412,0.503,-0.915,0.595,0.828,0.77,0.829,0.746,0.786,-0.054,-0.717,0.086
0.115,0.054,-0.891,-0.945,0.419,0.499,-0.918,0.597,0.825,0.768,0.826,0.744,0.782,-0.058,-0.721,0.086
0.116,0.045,-0.895,-0.941,0.425,0.493,-0.918,0.604,0.824,0.768,0.825,0.742,0.779,-0.06,-0.727,0.086
0.117,0.038,-0.9,-0.939,0.431,0.488,-0.919,0.609,0.821,0.766,0.823,0.74,0.778,-0.064,-0.732,0.084
0.118,0.039,-0.903,-0.943,0.432,0.49,-0.923,0.609,0.816,0.76,0.819,0.734,0.774,-0.067,-0.73,0.082
0.119,0.042,-0.903,-0.946,0.431,0.493,-0.924,0.609,0.809,0.755,0.815,0.729,0.769,-0.069,-0.726,0.081
0.12,0.038,-0.901,-0.94,0.432,0.488,-0.92,0.61,0.805,0.75,0.811,0.727,0.765,-0.072,-0.723,0.08
0.121,0.034,-0.901,-0.935,0.433,0.484,-0.918,0.611,0.799,0.746,0.806,0.724,0.762,-0.075,-0.723,0.081
0.122,0.035,-0.9,-0.936,0.433,0.485,-0.918,0.614,0.795,0.743,0.804,0.722,0.757,-0.079,-0.726,0.08
0.123,0.033,-0.903,-0.936,0.436,0.484,-0.92,0.617,0.792,0.74,0.803,0.719,0.755,-0.083,-0.727,0.079
0.124,0.023,-0.909,-0.932,0.443,0.477,-0.92,0.621,0.788,0.738,0.799,0.717,0.755,-0.086,-0.732,0.08
0.125,0.021,-0.91,-0.93,0.445,0.475,-0.92,0.622,0.783,0.733,0.795,0.714,0.751,-0.088,-0.736,0.08
0.126,0.021,-0.911,-0.933,0.445,0.477,-0.922,0.62,0.775,0.725,0.79,0.708,0.745,-0.091,-0.737,0.081
0.127,0.021,-0.914,-0.934,0.447,0.477,-0.924,0.618,0.767,0.72,0.785,0.702,0.742,-0.093,-0.74,0.084
0.128,0.015,-0.921,-0.935,0.454,0.474,-0.928,0.619,0.763,0.715,0.781,0.7,0.737,-0.097,-0.744,0.085
0.129,0.008,-0.928,-0.936,0.461,0.472,-0.932,0.622,0.76,0.713,0.779,0.698,0.735,-0.102,-0.751,0.086
0.13,0.002,-0.935,-0.937,0.467,0.469,-0.936,0.627,0.758,0.711,0.777,0.698,0.736,-0.105,-0.758,0.086
0.131,-0.005,-0.943,-0.938,0.474,0.466,-0.941,0.63,0.756,0.709,0.776,0.698,0.733,-0.108,-0.764,0.087
0.132,-0.007,-0.947,-0.94,0.477,0.466,-0.943,0.629,0.749,0.705,0.774,0.695,0.731,-0.111,-0.768,0.088
0.133,-0.009,-0.949,-0.94,0.478,0.465,-0.944,0.628,0.743,0.7,0.769,0.691,0.728,-0.112,-0.769,0.091
0.134,-0.013,-0.956,-0.943,0.485,0.465,-0.95,0.631,0.739,0.695,0.765,0.685,0.724,-0.115,-0.771,0.09
0.135,-0.019,-0.963,-0.944,0.491,0.462,-0.954,0.632,0.734,0.69,0.762,0.682,0.721,-0.118,-0.775,0.09
0.136,-0.025,-0.967,-0.942,0.496,0.458,-0.954,0.635,0.733,0.689,0.761,0.68,0.721,-0.122,-0.779,0.091
0.137,-0.03,-0.969,-0.939,0.499,0.454,-0.954,0.638,0.73,0.686,0.76,0.68,0.72,-0.122,-0.781,0.09
0.138,-0.028,-0.966,-0.939,0.497,0.456,-0.953,0.635,0.725,0.682,0.757,0.678,0.716,-0.123,-0.778,0.09
0.139,-0.026,-0.965,-0.939,0.496,0.456,-0.952,0.631,0.718,0.675,0.751,0.673,0.712,-0.127,-0.777,0.091
0.14,-0.025,-0.961,-0.935,0.493,0.455,-0.948,0.626,0.711,0.669,0.746,0.668,0.708,-0.128,-0.772,0.095
0.141,-0.024,-0.959,-0.935,0.491,0.456,-0.947,0.628,0.708,0.664,0.742,0.663,0.705,-0.131,-0.769,0.095
0.142,-0.024,-0.96,-0.935,0.491,0.456,-0.948,0.632,0.706,0.659,0.738,0.661,0.703,-0.131,-0.772,0.092
0.143,-0.025,-0.96,-0.935,0.492,0.455,-0.948,0.629,0.703,0.657,0.734,0.658,0.7,-0.133,-0.775,0.093
0.144,-0.03,-0.963,-0.932,0.497,0.451,-0.948,0.632,0.701,0.655,0.732,0.658,0.699,-0.136,-0.778,0.095
0.145,-0.03,-0.963,-0.933,0.496,0.451,-0.948,0.632,0.7,0.652,0.731,0.656,0.698,-0.136,-0.78,0.095
0.146,-0.029,-0.964,-0.935,0.496,0.453,-0.95,0.626,0.694,0.647,0.726,0.652,0.694,-0.139,-0.778,0.097
0.147,-0.033,-0.969,-0.936,0.501,0.452,-0.953,0.622,0.687,0.641,0.72,0.648,0.689,-0.141,-0.776,0.1
0.148,-0.035,-0.972,-0.938,0.504,0.451,-0.955,0.62,0.684,0.638,0.717,0.644,0.687,-0.143,-0.782,0.1
0.149,-0.038,-0.979,-0.941,0.508,0.451,-0.96,0.623,0.687,0.638,0.718,0.646,0.688,-0.145,-0.786,0.1
0.15,-0.042,-0.985,-0.944,0.513,0.451,-0.964,0.626,0.686,0.637,0.719,0.647,0.689,-0.145,-0.79,0.104
0.151,-0.044,-0.99,-0.946,0.517,0.451,-0.968,0.627,0.683,0.636,0.719,0.646,0.687,-0.147,-0.795,0.104
0.152,-0.049,-0.994,-0.945,0.522,0.448,-0.97,0.626,0.681,0.634,0.717,0.645,0.685,-0.149,-0.796,0.104
0.153,-0.049,-0.994,-0.945,0.521,0.448,-0.969,0.624,0.676,0.631,0.715,0.643,0.683,-0.15,-0.797,0.105
0.154,-0.046,-0.994,-0.948,0.52,0.451,-0.971,0.624,0.674,0.629,0.714,0.643,0.683,-0.148,-0.799,0.105
0.155,-0.048,-0.997,-0.949,0.522,0.451,-0.973,0.623,0.671,0.627,0.712,0.641,0.684,-0.148,-0.803,0.107
0.156,-0.053,-1,-0.948,0.527,0.447,-0.974,0.628,0.672,0.628,0.713,0.64,0.684,-0.151,-0.804,0.106
0.157,-0.054,-0.999,-0.945,0.527,0.445,-0.972,0.631,0.674,0.628,0.715,0.642,0.686,-0.15,-0.802,0.105
0.158,-0.051,-0.997,-0.946,0.524,0.448,-0.972,0.629,0.672,0.627,0.712,0.64,0.685,-0.15,-0.804,0.105
0.159,-0.049,-0.995,-0.946,0.522,0.448,-0.97,0.627,0.669,0.624,0.709,0.637,0.683,-0.151,-0.801,0.107
0.16,-0.045,-0.989,-0.943,0.517,0.448,-0.966,0.625,0.665,0.623,0.707,0.635,0.681,-0.15,-0.798,0.105
0.161,-0.042,-0.984,-0.942,0.513,0.45,-0.963,0.624,0.662,0.62,0.703,0.633,0.678,-0.15,-0.792,0.106
0.162,-0.04,-0.982,-0.942,0.511,0.451,-0.962,0.624,0.661,0.618,0.703,0.633,0.678,-0.151,-0.79,0.107
0.163,-0.043,-0.984,-0.942,0.513,0.449,-0.963,0.625,0.659,0.619,0.703,0.631,0.678,-0.152,-0.796,0.108
0.164,-0.049,-0.983,-0.934,0.515,0.443,-0.959,0.626,0.658,0.617,0.701,0.631,0.678,-0.153,-0.797,0.108
0.165,-0.048,-0.984,-0.935,0.516,0.444,-0.96,0.628,0.656,0.616,0.701,0.631,0.678,-0.154,-0.796,0.106
0.166,-0.042,-0.984,-0.942,0.513,0.45,-0.963,0.624,0.652,0.614,0.697,0.628,0.674,-0.154,-0.795,0.107
0.167,-0.037,-0.982,-0.944,0.509,0.453,-0.963,0.62,0.647,0.611,0.694,0.627,0.673,-0.153,-0.792,0.11
0.168,-0.04,-0.985,-0.945,0.512,0.453,-0.965,0.622,0.648,0.611,0.696,0.625,0.672,-0.155,-0.794,0.111
0.169,-0.042,-0.987,-0.946,0.514,0.452,-0.966,0.624,0.649,0.611,0.695,0.626,0.674,-0.157,-0.798,0.111
0.17,-0.043,-0.992,-0.949,0.518,0.453,-0.97,0.625,0.649,0.611,0.696,0.628,0.675,-0.157,-0.805,0.112
0.171,-0.05,-0.999,-0.949,0.524,0.45,-0.974,0.625,0.649,0.611,0.695,0.627,0.674,-0.157,-0.807,0.112
0.172,-0.056,-1.004,-0.948,0.53,0.446,-0.976,0.626,0.647,0.61,0.694,0.626,0.673,-0.158,-0.809,0.113
0.173,-0.057,-1.004,-0.947,0.53,0.445,-0.976,0.627,0.649,0.611,0.695,0.627,0.675,-0.158,-0.81,0.112
0.174,-0.057,-1.005,-0.948,0.531,0.445,-0.977,0.626,0.649,0.611,0.695,0.628,0.675,-0.157,-0.81,0.113
0.175,-0.058,-1.009,-0.952,0.533,0.447,-0.981,0.625,0.648,0.61,0.696,0.627,0.674,-0.159,-0.809,0.115
0.176,-0.06,-1.01,-0.95,0.536,0.445,-0.981,0.627,0.651,0.611,0.698,0.628,0.676,-0.159,-0.81,0.115
0.177,-0.062,-1.01,-0.948,0.537,0.443,-0.979,0.628,0.651,0.612,0.695,0.629,0.676,-0.16,-0.811,0.112
0.178,-0.061,-1.008,-0.948,0.535,0.443,-0.978,0.628,0.649,0.611,0.695,0.628,0.673,-0.161,-0.808,0.112
0.179,-0.058,-1.004,-0.946,0.531,0.444,-0.975,0.627,0.648,0.608,0.694,0.626,0.672,-0.159,-0.806,0.112
0.18,-0.054,-0.997,-0.943,0.525,0.444,-0.97,0.623,0.645,0.606,0.691,0.625,0.673,-0.158,-0.802,0.111
0.181,-0.05,-0.99,-0.941,0.52,0.446,-0.966,0.621,0.641,0.604,0.69,0.623,0.67,-0.158,-0.796,0.111
0.182,-0.05,-0.987,-0.938,0.518,0.444,-0.962,0.62,0.64,0.604,0.689,0.624,0.67,-0.159,-0.795,0.11
0.183,-0.054,-0.987,-0.933,0.521,0.439,-0.96,0.621,0.642,0.605,0.692,0.624,0.671,-0.158,-0.796,0.11
0.184,-0.052,-0.986,-0.933,0.519,0.44,-0.96,0.622,0.644,0.607,0.693,0.623,0.672,-0.159,-0.796,0.11
0.185,-0.053,-0.986,-0.932,0.519,0.44,-0.959,0.623,0.644,0.609,0.694,0.625,0.673,-0.158,-0.796,0.108
0.186,-0.052,-0.986,-0.933,0.519,0.441,-0.96,0.619,0.641,0.606,0.693,0.623,0.672,-0.159,-0.794,0.111
0.187,-0.045,-0.982,-0.937,0.514,0.446,-0.96,0.615,0.638,0.603,0.69,0.621,0.669,-0.159,-0.792,0.113
0.188,-0.046,-0.983,-0.937,0.515,0.445,-0.96,0.617,0.638,0.603,0.691,0.622,0.669,-0.16,-0.794,0.113
0.189,-0.05,-0.989,-0.938,0.519,0.444,-0.963,0.619,0.64,0.605,0.693,0.622,0.669,-0.161,-0.798,0.113
0.19,-0.052,-0.994,-0.942,0.523,0.445,-0.968,0.621,0.641,0.607,0.695,0.625,0.671,-0.162,-0.805,0.114
0.191,-0.054,-0.999,-0.944,0.527,0.445,-0.972,0.623,0.642,0.609,0.697,0.626,0.672,-0.162,-0.809,0.113
0.192,-0.056,-1.002,-0.945,0.529,0.445,-0.973,0.622,0.644,0.609,0.696,0.626,0.672,-0.161,-0.811,0.113
0.193,-0.053,-1,-0.946,0.526,0.446,-0.973,0.62,0.644,0.608,0.698,0.626,0.673,-0.16,-0.808,0.114
0.194,-0.051,-0.999,-0.949,0.525,0.449,-0.974,0.617,0.643,0.606,0.698,0.626,0.672,-0.16,-0.806,0.113
0.195,-0.054,-1.002,-0.947,0.528,0.447,-0.975,0.617,0.643,0.606,0.697,0.626,0.671,-0.161,-0.807,0.114
0.196,-0.06,-1.004,-0.944,0.532,0.442,-0.974,0.622,0.646,0.609,0.701,0.627,0.674,-0.16,-0.808,0.113
0.197,-0.063,-1.004,-0.942,0.534,0.439,-0.973,0.625,0.649,0.611,0.703,0.631,0.676,-0.16,-0.81,0.111
0.198,-0.061,-1,-0.94,0.531,0.439,-0.97,0.624,0.65,0.613,0.702,0.63,0.677,-0.159,-0.807,0.112
0.199,-0.058,-0.997,-0.94,0.527,0.441,-0.969,0.623,0.65,0.612,0.702,0.631,0.677,-0.157,-0.803,0.112
0.2,-0.053,-0.992,-0.938,0.523,0.442,-0.965,0.621,0.648,0.612,0.701,0.631,0.675,-0.157,-0.798,0.11
0.201,-0.051,-0.989,-0.938,0.52,0.443,-0.963,0.617,0.645,0.61,0.699,0.628,0.673,-0.158,-0.796,0.108
0.202,-0.05,-0.988,-0.938,0.519,0.444,-0.963,0.617,0.643,0.609,0.699,0.628,0.673,-0.158,-0.792,0.107
0.203,-0.053,-0.988,-0.934,0.521,0.44,-0.961,0.618,0.645,0.613,0.702,0.629,0.675,-0.157,-0.794,0.107
0.204,-0.058,-0.987,-0.929,0.522,0.435,-0.958,0.62,0.647,0.613,0.702,0.631,0.675,-0.158,-0.796,0.107
0.205,-0.058,-0.986,-0.928,0.522,0.435,-0.957,0.621,0.649,0.616,0.703,0.632,0.677,-0.155,-0.795,0.106
0.206,-0.051,-0.987,-0.936,0.518,0.443,-0.961,0.618,0.647,0.615,0.702,0.631,0.676,-0.154,-0.795,0.106
0.207,-0.047,-0.984,-0.937,0.515,0.445,-0.961,0.614,0.644,0.611,0.699,0.629,0.674,-0.155,-0.79,0.106
0.208,-0.052,-0.988,-0.936,0.52,0.442,-0.962,0.616,0.644,0.612,0.701,0.629,0.675,-0.157,-0.795,0.106
0.209,-0.055,-0.991,-0.935,0.523,0.44,-0.963,0.618,0.648,0.613,0.703,0.63,0.675,-0.159,-0.798,0.107
0.21,-0.06,-0.996,-0.935,0.528,0.438,-0.966,0.62,0.651,0.616,0.704,0.632,0.677,-0.159,-0.801,0.108
0.211,-0.065,-1.001,-0.936,0.533,0.435,-0.969,0.622,0.652,0.616,0.706,0.635,0.678,-0.16,-0.805,0.106
0.212,-0.064,-1.002,-0.938,0.533,0.437,-0.97,0.621,0.653,0.618,0.706,0.635,0.678,-0.16,-0.805,0.106
0.213,-0.06,-1,-0.94,0.531,0.44,-0.97,0.621,0.651,0.618,0.706,0.633,0.677,-0.159,-0.803,0.107
0.214,-0.059,-0.999,-0.94,0.529,0.44,-0.97,0.622,0.654,0.617,0.707,0.635,0.678,-0.158,-0.8,0.107
0.215,-0.06,-1.004,-0.944,0.532,0.442,-0.974,0.62,0.654,0.619,0.709,0.635,0.677,-0.158,-0.804,0.107
0.216,-0.065,-1.004,-0.939,0.534,0.436,-0.971,0.621,0.654,0.621,0.711,0.636,0.678,-0.158,-0.807,0.106
0.217,-0.068,-1.004,-0.936,0.536,0.434,-0.971,0.624,0.658,0.623,0.714,0.638,0.681,-0.154,-0.809,0.107
0.218,-0.064,-1.002,-0.938,0.532,0.437,-0.97,0.624,0.657,0.624,0.713,0.639,0.681,-0.151,-0.805,0.105
0.219,-0.059,-0.997,-0.937,0.528,0.439,-0.967,0.622,0.657,0.625,0.712,0.638,0.68,-0.15,-0.801,0.103
0.22,-0.056,-0.992,-0.936,0.524,0.44,-0.964,0.619,0.656,0.624,0.711,0.636,0.68,-0.148,-0.796,0.103
0.221,-0.051,-0.986,-0.934,0.518,0.442,-0.96,0.618,0.654,0.621,0.708,0.636,0.678,-0.149,-0.791,0.103
0.222,-0.047,-0.983,-0.935,0.515,0.444,-0.959,0.617,0.654,0.619,0.708,0.633,0.677,-0.149,-0.791,0.103
0.223,-0.049,-0.985,-0.937,0.517,0.444,-0.961,0.618,0.655,0.621,0.708,0.635,0.679,-0.148,-0.792,0.104
0.224,-0.051,-0.985,-0.934,0.518,0.442,-0.96,0.619,0.656,0.62,0.709,0.634,0.677,-0.149,-0.791,0.104
0.225,-0.051,-0.981,-0.929,0.516,0.439,-0.955,0.618,0.655,0.62,0.709,0.633,0.677,-0.149,-0.789,0.102
0.226,-0.051,-0.983,-0.932,0.516,0.441,-0.957,0.618,0.655,0.62,0.708,0.634,0.678,-0.149,-0.79,0.103
0.227,-0.045,-0.981,-0.935,0.513,0.445,-0.958,0.614,0.651,0.617,0.707,0.631,0.675,-0.148,-0.785,0.105
0.228,-0.046,-0.982,-0.934,0.514,0.444,-0.958,0.615,0.651,0.62,0.708,0.632,0.675,-0.15,-0.787,0.105
0.229,-0.053,-0.986,-0.932,0.52,0.439,-0.959,0.619,0.657,0.623,0.711,0.636,0.677,-0.151,-0.793,0.105
0.23,-0.058,-0.99,-0.932,0.524,0.437,-0.962,0.62,0.658,0.624,0.713,0.637,0.678,-0.154,-0.797,0.105
0.231,-0.057,-0.995,-0.938,0.526,0.44,-0.967,0.62,0.659,0.625,0.714,0.638,0.677,-0.155,-0.801,0.104
0.232,-0.058,-0.994,-0.936,0.526,0.439,-0.966,0.621,0.659,0.625,0.714,0.638,0.677,-0.153,-0.8,0.105
0.233,-0.054,-0.994,-0.939,0.524,0.442,-0.966,0.619,0.658,0.625,0.713,0.638,0.678,-0.152,-0.799,0.105
0.234,-0.051,-0.995,-0.944,0.523,0.446,-0.969,0.619,0.659,0.625,0.713,0.638,0.677,-0.151,-0.799,0.104
0.235,-0.052,-0.998,-0.945,0.525,0.446,-0.972,0.62,0.658,0.625,0.715,0.639,0.677,-0.152,-0.801,0.106
0.236,-0.055,-0.997,-0.942,0.526,0.444,-0.97,0.62,0.659,0.627,0.716,0.64,0.678,-0.152,-0.802,0.105
0.237,-0.059,-0.998,-0.939,0.528,0.44,-0.969,0.624,0.663,0.63,0.718,0.642,0.681,-0.151,-0.803,0.103
0.238,-0.054,-0.994,-0.939,0.524,0.442,-0.966,0.624,0.664,0.63,0.719,0.643,0.68,-0.152,-0.8,0.102
0.239,-0.05,-0.988,-0.938,0.519,0.444,-0.963,0.624,0.663,0.63,0.718,0.64,0.68,-0.15,-0.795,0.103
0.24,-0.043,-0.98,-0.937,0.512,0.447,-0.959,0.622,0.661,0.631,0.719,0.64,0.68,-0.149,-0.792,0.101
0.241,-0.04,-0.975,-0.934,0.507,0.448,-0.955,0.617,0.659,0.629,0.717,0.639,0.677,-0.151,-0.787,0.103
0.242,-0.044,-0.978,-0.934,0.511,0.445,-0.956,0.614,0.659,0.629,0.717,0.637,0.677,-0.15,-0.784,0.103
0.243,-0.048,-0.98,-0.932,0.514,0.442,-0.956,0.618,0.66,0.63,0.719,0.638,0.679,-0.148,-0.785,0.101
0.244,-0.047,-0.977,-0.93,0.512,0.441,-0.953,0.622,0.662,0.631,0.719,0.639,0.679,-0.148,-0.784,0.1
0.245,-0.043,-0.969,-0.926,0.506,0.442,-0.948,0.624,0.664,0.634,0.72,0.642,0.68,-0.149,-0.78,0.095
0.246,-0.039,-0.966,-0.927,0.502,0.444,-0.947,0.625,0.665,0.634,0.72,0.643,0.682,-0.147,-0.776,0.097
0.247,-0.031,-0.964,-0.932,0.497,0.451,-0.948,0.622,0.665,0.633,0.721,0.641,0.681,-0.148,-0.775,0.099
0.248,-0.03,-0.962,-0.932,0.496,0.451,-0.947,0.624,0.665,0.635,0.723,0.643,0.681,-0.149,-0.777,0.1
0.249,-0.03,-0.962,-0.932,0.496,0.451,-0.947,0.625,0.667,0.639,0.724,0.647,0.684,-0.15,-0.78,0.098
0.25,-0.033,-0.965,-0.931,0.499,0.449,-0.948,0.625,0.669,0.642,0.726,0.649,0.684,-0.15,-0.78,0.098
0.251,-0.037,-0.971,-0.933,0.504,0.448,-0.952,0.626,0.668,0.642,0.725,0.649,0.685,-0.15,-0.78,0.099
0.252,-0.037,-0.971,-0.933,0.504,0.448,-0.953,0.624,0.668,0.643,0.726,0.651,0.688,-0.15,-0.781,0.099
0.253,-0.035,-0.966,-0.929,0.501,0.447,-0.948,0.622,0.669,0.644,0.727,0.653,0.69,-0.151,-0.771,0.099
0.254,-0.03,-0.96,-0.93,0.495,0.45,-0.945,0.622,0.669,0.645,0.728,0.654,0.691,-0.15,-0.767,0.098
0.255,-0.029,-0.959,-0.929,0.494,0.45,-0.945,0.623,0.673,0.648,0.731,0.656,0.692,-0.149,-0.77,0.098
0.256,-0.032,-0.958,-0.925,0.494,0.447,-0.941,0.63,0.68,0.653,0.735,0.659,0.694,-0.147,-0.768,0.095
0.257,-0.034,-0.954,-0.92,0.494,0.443,-0.937,0.636,0.685,0.658,0.739,0.663,0.698,-0.146,-0.768,0.091
0.258,-0.03,-0.948,-0.917,0.489,0.443,-0.932,0.637,0.69,0.661,0.742,0.665,0.701,-0.144,-0.761,0.089
0.259,-0.025,-0.939,-0.914,0.482,0.445,-0.927,0.636,0.693,0.663,0.746,0.666,0.703,-0.142,-0.752,0.086
0.26,-0.015,-0.927,-0.912,0.471,0.449,-0.919,0.633,0.695,0.666,0.748,0.668,0.705,-0.138,-0.745,0.085
0.261,-0.01,-0.918,-0.908,0.465,0.449,-0.913,0.63,0.698,0.668,0.75,0.672,0.707,-0.135,-0.741,0.084
0.262,-0.004,-0.911,-0.907,0.458,0.451,-0.909,0.631,0.699,0.669,0.752,0.673,0.708,-0.133,-0.735,0.084
0.263,0,-0.908,-0.908,0.454,0.454,-0.908,0.631,0.702,0.672,0.754,0.674,0.71,-0.132,-0.733,0.083
0.264,0.001,-0.903,-0.904,0.452,0.452,-0.903,0.631,0.708,0.679,0.759,0.679,0.715,-0.129,-0.729,0.082
0.265,0.005,-0.894,-0.899,0.445,0.452,-0.897,0.633,0.714,0.683,0.763,0.683,0.719,-0.124,-0.722,0.077
0.266,0.011,-0.889,-0.899,0.44,0.455,-0.894,0.633,0.715,0.686,0.765,0.686,0.72,-0.122,-0.719,0.079
0.267,0.016,-0.884,-0.9,0.434,0.458,-0.892,0.628,0.713,0.686,0.764,0.685,0.721,-0.122,-0.716,0.08
0.268,0.018,-0.884,-0.902,0.433,0.46,-0.893,0.624,0.713,0.685,0.763,0.685,0.721,-0.121,-0.717,0.083
0.269,0.017,-0.887,-0.904,0.435,0.461,-0.895,0.623,0.711,0.684,0.763,0.685,0.721,-0.122,-0.718,0.086
0.27,0.013,-0.89,-0.903,0.439,0.459,-0.897,0.626,0.711,0.684,0.763,0.685,0.72,-0.127,-0.721,0.084
0.271,0.01,-0.892,-0.902,0.442,0.456,-0.897,0.627,0.715,0.686,0.766,0.69,0.722,-0.127,-0.721,0.083
0.272,0.007,-0.893,-0.9,0.444,0.454,-0.896,0.628,0.717,0.689,0.768,0.691,0.724,-0.128,-0.718,0.081
0.273,0.009,-0.892,-0.901,0.442,0.456,-0.897,0.627,0.72,0.691,0.769,0.691,0.723,-0.127,-0.718,0.08
0.274,0.017,-0.893,-0.91,0.438,0.464,-0.901,0.626,0.723,0.693,0.769,0.692,0.723,-0.123,-0.723,0.081
0.275,0.015,-0.899,-0.915,0.442,0.465,-0.907,0.633,0.728,0.697,0.772,0.692,0.723,-0.124,-0.728,0.077
0.276,0.012,-0.901,-0.913,0.445,0.463,-0.907,0.639,0.734,0.7,0.775,0.693,0.724,-0.123,-0.729,0.073
0.277,0.007,-0.899,-0.907,0.446,0.457,-0.903,0.642,0.738,0.703,0.778,0.697,0.727,-0.124,-0.728,0.07
0.278,0.009,-0.893,-0.901,0.443,0.455,-0.897,0.64,0.739,0.705,0.779,0.699,0.729,-0.124,-0.719,0.069
0.279,0.013,-0.883,-0.896,0.435,0.455,-0.889,0.636,0.737,0.705,0.778,0.699,0.729,-0.124,-0.71,0.068
0.28,0.018,-0.872,-0.891,0.427,0.455,-0.881,0.628,0.737,0.705,0.779,0.701,0.731,-0.122,-0.704,0.069
0.281,0.025,-0.861,-0.887,0.418,0.456,-0.874,0.62,0.734,0.702,0.777,0.702,0.732,-0.12,-0.695,0.071
0.282,0.029,-0.855,-0.883,0.413,0.456,-0.869,0.618,0.734,0.704,0.779,0.702,0.734,-0.12,-0.687,0.071
0.283,0.028,-0.851,-0.878,0.411,0.453,-0.864,0.617,0.734,0.708,0.781,0.703,0.735,-0.119,-0.68,0.07
0.284,0.025,-0.845,-0.87,0.41,0.448,-0.858,0.612,0.734,0.709,0.783,0.708,0.737,-0.12,-0.677,0.07
0.285,0.028,-0.837,-0.865,0.405,0.447,-0.852,0.611,0.736,0.711,0.785,0.709,0.739,-0.12,-0.669,0.07
0.286,0.029,-0.833,-0.862,0.403,0.445,-0.847,0.61,0.733,0.709,0.784,0.707,0.74,-0.122,-0.663,0.068
0.287,0.029,-0.831,-0.859,0.401,0.444,-0.845,0.604,0.728,0.704,0.782,0.706,0.74,-0.123,-0.656,0.07
0.288,0.029,-0.829,-0.857,0.401,0.442,-0.843,0.6,0.724,0.702,0.782,0.707,0.739,-0.124,-0.65,0.072
0.289,0.025,-0.828,-0.853,0.402,0.439,-0.841,0.596,0.719,0.702,0.783,0.711,0.742,-0.125,-0.651,0.074
0.29,0.021,-0.832,-0.853,0.406,0.437,-0.843,0.587,0.71,0.698,0.78,0.712,0.743,-0.128,-0.654,0.08
0.291,0.018,-0.838,-0.856,0.41,0.436,-0.847,0.577,0.698,0.693,0.776,0.71,0.744,-0.128,-0.661,0.086
0.292,0.017,-0.839,-0.857,0.411,0.436,-0.848,0.567,0.684,0.684,0.771,0.708,0.743,-0.129,-0.663,0.092
0.293,0.018,-0.838,-0.856,0.41,0.436,-0.847,0.554,0.665,0.671,0.762,0.704,0.74,-0.132,-0.663,0.098
0.294,0.017,-0.843,-0.86,0.413,0.439,-0.851,0.542,0.648,0.66,0.753,0.699,0.737,-0.133,-0.67,0.103
0.295,0.019,-0.85,-0.869,0.415,0.444,-0.859,0.537,0.639,0.652,0.75,0.696,0.736,-0.132,-0.679,0.108
0.296,0.022,-0.857,-0.878,0.417,0.45,-0.868,0.534,0.636,0.65,0.751,0.696,0.738,-0.128,-0.688,0.113
0.297,0.024,-0.863,-0.886,0.42,0.455,-0.875,0.532,0.632,0.646,0.749,0.695,0.738,-0.124,-0.699,0.117
0.298,0.028,-0.862,-0.889,0.417,0.458,-0.875,0.53,0.629,0.642,0.746,0.693,0.737,-0.122,-0.7,0.118
0.299,0.033,-0.856,-0.888,0.412,0.46,-0.872,0.527,0.629,0.642,0.747,0.695,0.738,-0.118,-0.693,0.117
0.3,0.037,-0.846,-0.883,0.405,0.461,-0.865,0.526,0.629,0.642,0.746,0.696,0.739,-0.115,-0.686,0.116
0.301,0.044,-0.835,-0.878,0.396,0.461,-0.857,0.524,0.629,0.642,0.746,0.695,0.739,-0.117,-0.674,0.115
0.302,0.048,-0.827,-0.874,0.39,0.461,-0.851,0.525,0.631,0.646,0.749,0.698,0.742,-0.114,-0.666,0.113
0.303,0.047,-0.82,-0.867,0.387,0.457,-0.843,0.527,0.638,0.652,0.755,0.703,0.747,-0.112,-0.661,0.112
0.304,0.045,-0.81,-0.856,0.383,0.451,-0.834,0.528,0.646,0.658,0.762,0.708,0.75,-0.113,-0.65,0.107
0.305,0.049,-0.8,-0.849,0.376,0.449,-0.825,0.534,0.655,0.666,0.768,0.714,0.752,-0.11,-0.636,0.101
0.306,0.051,-0.796,-0.847,0.373,0.449,-0.822,0.537,0.658,0.668,0.768,0.713,0.751,-0.11,-0.631,0.1
0.307,0.05,-0.803,-0.853,0.377,0.451,-0.828,0.538,0.655,0.665,0.764,0.709,0.748,-0.112,-0.635,0.102
0.308,0.05,-0.807,-0.857,0.379,0.453,-0.832,0.538,0.653,0.661,0.76,0.708,0.748,-0.111,-0.64,0.103
0.309,0.052,-0.806,-0.859,0.378,0.455,-0.833,0.535,0.65,0.657,0.759,0.707,0.75,-0.11,-0.641,0.107
0.31,0.048,-0.814,-0.862,0.383,0.454,-0.838,0.535,0.645,0.654,0.756,0.705,0.748,-0.111,-0.65,0.111
0.311,0.044,-0.822,-0.866,0.389,0.455,-0.844,0.537,0.642,0.652,0.754,0.705,0.75,-0.112,-0.662,0.113
0.312,0.043,-0.824,-0.868,0.391,0.455,-0.846,0.535,0.638,0.649,0.753,0.705,0.751,-0.112,-0.663,0.114
0.313,0.045,-0.825,-0.87,0.39,0.458,-0.847,0.531,0.631,0.643,0.748,0.7,0.749,-0.112,-0.659,0.117
0.314,0.051,-0.826,-0.877,0.388,0.464,-0.852,0.53,0.627,0.639,0.744,0.699,0.748,-0.111,-0.66,0.119
0.315,0.052,-0.829,-0.881,0.389,0.467,-0.855,0.529,0.627,0.638,0.743,0.7,0.748,-0.11,-0.668,0.121
0.316,0.053,-0.83,-0.882,0.389,0.468,-0.856,0.528,0.626,0.637,0.743,0.7,0.75,-0.108,-0.671,0.123
0.317,0.05,-0.834,-0.883,0.392,0.467,-0.859,0.528,0.625,0.637,0.741,0.701,0.749,-0.108,-0.677,0.125
0.318,0.053,-0.839,-0.891,0.393,0.472,-0.865,0.527,0.624,0.635,0.739,0.698,0.747,-0.104,-0.685,0.127
0.319,0.056,-0.846,-0.901,0.395,0.478,-0.874,0.524,0.622,0.632,0.736,0.694,0.745,-0.1,-0.691,0.127
0.32,0.059,-0.852,-0.911,0.397,0.485,-0.882,0.522,0.622,0.629,0.732,0.691,0.743,-0.097,-0.696,0.127
0.321,0.066,-0.853,-0.918,0.394,0.491,-0.885,0.521,0.622,0.628,0.731,0.69,0.741,-0.095,-0.697,0.127
0.322,0.066,-0.852,-0.917,0.394,0.491,-0.885,0.522,0.623,0.627,0.732,0.689,0.741,-0.093,-0.699,0.128
0.323,0.067,-0.853,-0.919,0.394,0.492,-0.886,0.524,0.623,0.627,0.732,0.689,0.741,-0.091,-0.7,0.129
0.324,0.062,-0.856,-0.918,0.397,0.49,-0.886,0.525,0.621,0.624,0.729,0.687,0.74,-0.092,-0.703,0.131
0.325,0.059,-0.857,-0.915,0.399,0.486,-0.885,0.528,0.617,0.621,0.725,0.684,0.738,-0.096,-0.701,0.134
0.326,0.059,-0.856,-0.914,0.399,0.486,-0.884,0.528,0.613,0.617,0.723,0.681,0.735,-0.098,-0.699,0.134
0.327,0.059,-0.859,-0.918,0.401,0.488,-0.888,0.526,0.61,0.611,0.719,0.679,0.733,-0.098,-0.705,0.136
0.328,0.058,-0.866,-0.923,0.404,0.49,-0.894,0.526,0.605,0.606,0.714,0.674,0.729,-0.103,-0.709,0.139
0.329,0.052,-0.871,-0.922,0.409,0.487,-0.896,0.529,0.603,0.604,0.712,0.672,0.726,-0.106,-0.712,0.137
0.33,0.045,-0.879,-0.925,0.417,0.485,-0.902,0.534,0.603,0.604,0.714,0.673,0.727,-0.106,-0.718,0.137
0.331,0.036,-0.889,-0.925,0.426,0.48,-0.907,0.54,0.607,0.606,0.715,0.673,0.728,-0.108,-0.725,0.135
0.332,0.024,-0.899,-0.923,0.438,0.473,-0.911,0.548,0.61,0.609,0.714,0.673,0.723,-0.113,-0.731,0.131
0.333,0.013,-0.906,-0.92,0.447,0.467,-0.913,0.558,0.615,0.612,0.713,0.668,0.718,-0.117,-0.735,0.126
0.334,-0.001,-0.917,-0.917,0.46,0.458,-0.917,0.571,0.621,0.612,0.711,0.663,0.712,-0.124,-0.74,0.12
0.335,-0.021,-0.934,-0.913,0.477,0.446,-0.923,0.58,0.622,0.612,0.707,0.656,0.703,-0.134,-0.747,0.12
0.336,-0.032,-0.941,-0.909,0.486,0.439,-0.925,0.585,0.624,0.61,0.705,0.653,0.701,-0.137,-0.752,0.12
0.337,-0.036,-0.944,-0.907,0.49,0.435,-0.925,0.591,0.628,0.612,0.706,0.654,0.701,-0.139,-0.756,0.117
0.338,-0.037,-0.943,-0.905,0.49,0.433,-0.924,0.593,0.628,0.612,0.706,0.653,0.699,-0.142,-0.758,0.114
0.339,-0.042,-0.947,-0.904,0.494,0.431,-0.925,0.592,0.624,0.605,0.7,0.647,0.693,-0.144,-0.758,0.116
0.34,-0.043,-0.953,-0.908,0.498,0.432,-0.93,0.587,0.614,0.598,0.692,0.64,0.686,-0.146,-0.764,0.117
0.341,-0.035,-0.948,-0.913,0.491,0.44,-0.93,0.586,0.611,0.593,0.688,0.636,0.68,-0.148,-0.769,0.119
0.342,-0.035,-0.948,-0.913,0.492,0.439,-0.93,0.589,0.612,0.592,0.685,0.633,0.679,-0.15,-0.772,0.119
0.343,-0.042,-0.956,-0.913,0.499,0.435,-0.934,0.591,0.61,0.589,0.682,0.631,0.676,-0.153,-0.776,0.117
0.344,-0.048,-0.961,-0.913,0.504,0.432,-0.937,0.593,0.609,0.588,0.681,0.63,0.674,-0.157,-0.779,0.117
0.345,-0.052,-0.964,-0.911,0.508,0.429,-0.938,0.596,0.608,0.587,0.679,0.627,0.672,-0.158,-0.779,0.117
0.346,-0.05,-0.964,-0.913,0.506,0.432,-0.939,0.595,0.605,0.581,0.675,0.622,0.667,-0.159,-0.78,0.119
0.347,-0.053,-0.971,-0.917,0.512,0.431,-0.944,0.593,0.602,0.577,0.671,0.619,0.662,-0.161,-0.785,0.119
0.348,-0.059,-0.978,-0.919,0.519,0.429,-0.949,0.592,0.602,0.575,0.67,0.618,0.66,-0.161,-0.789,0.12
0.349,-0.066,-0.987,-0.921,0.526,0.427,-0.954,0.591,0.601,0.575,0.668,0.617,0.658,-0.162,-0.792,0.121
0.35,-0.079,-1.003,-0.923,0.541,0.422,-0.964,0.591,0.597,0.57,0.665,0.613,0.654,-0.162,-0.797,0.122
0.351,-0.086,-1.012,-0.925,0.549,0.419,-0.969,0.592,0.599,0.572,0.665,0.614,0.655,-0.162,-0.802,0.121
0.352,-0.087,-1.016,-0.928,0.552,0.42,-0.972,0.594,0.601,0.573,0.665,0.615,0.655,-0.163,-0.808,0.12
0.353,-0.081,-1.01,-0.929,0.545,0.424,-0.97,0.596,0.602,0.573,0.666,0.615,0.656,-0.163,-0.809,0.121
0.354,-0.074,-1.01,-0.935,0.542,0.43,-0.973,0.594,0.6,0.571,0.665,0.612,0.655,-0.162,-0.81,0.122
0.355,-0.075,-1.018,-0.943,0.546,0.433,-0.98,0.589,0.594,0.566,0.659,0.608,0.651,-0.164,-0.818,0.125
0.356,-0.058,-0.998,-0.94,0.528,0.441,-0.969,0.6,0.603,0.575,0.667,0.616,0.658,-0.165,-0.82,0.123
0.357,-0.046,-0.986,-0.94,0.516,0.447,-0.963,0.61,0.613,0.582,0.676,0.624,0.666,-0.165,-0.825,0.122
0.358,-0.058,-0.998,-0.939,0.528,0.441,-0.969,0.606,0.609,0.577,0.671,0.619,0.664,-0.164,-0.823,0.122
0.359,-0.067,-1.006,-0.939,0.536,0.436,-0.972,0.603,0.604,0.571,0.666,0.613,0.656,-0.166,-0.82,0.121
0.36,-0.066,-1.004,-0.939,0.535,0.436,-0.972,0.6,0.601,0.568,0.663,0.612,0.654,-0.166,-0.818,0.121
0.361,-0.06,-0.998,-0.938,0.529,0.439,-0.968,0.598,0.599,0.566,0.661,0.61,0.653,-0.167,-0.814,0.12
0.362,-0.056,-0.994,-0.938,0.525,0.441,-0.966,0.597,0.599,0.566,0.661,0.609,0.651,-0.169,-0.812,0.12
0.363,-0.058,-0.997,-0.939,0.527,0.44,-0.968,0.6,0.599,0.567,0.662,0.608,0.651,-0.168,-0.813,0.12
0.364,-0.061,-1,-0.938,0.53,0.438,-0.969,0.603,0.601,0.565,0.662,0.608,0.649,-0.17,-0.817,0.12
0.365,-0.065,-0.998,-0.933,0.531,0.434,-0.966,0.603,0.602,0.566,0.662,0.608,0.65,-0.169,-0.815,0.12
0.366,-0.063,-0.997,-0.934,0.53,0.435,-0.966,0.6,0.602,0.565,0.66,0.606,0.649,-0.167,-0.813,0.12
0.367,-0.06,-0.997,-0.936,0.529,0.438,-0.967,0.6,0.599,0.561,0.657,0.602,0.647,-0.169,-0.815,0.121
0.368,-0.061,-0.999,-0.938,0.53,0.438,-0.969,0.603,0.601,0.564,0.66,0.603,0.647,-0.168,-0.816,0.122
0.369,-0.061,-1.004,-0.942,0.532,0.441,-0.973,0.603,0.604,0.566,0.662,0.603,0.646,-0.167,-0.817,0.121
0.37,-0.066,-1.01,-0.944,0.538,0.439,-0.978,0.605,0.606,0.567,0.662,0.605,0.649,-0.169,-0.822,0.123
0.371,-0.07,-1.016,-0.945,0.543,0.437,-0.981,0.608,0.606,0.57,0.664,0.605,0.65,-0.17,-0.827,0.122
0.372,-0.074,-1.018,-0.945,0.546,0.435,-0.981,0.609,0.608,0.569,0.663,0.605,0.648,-0.171,-0.829,0.12
0.373,-0.074,-1.02,-0.945,0.547,0.435,-0.982,0.611,0.608,0.57,0.662,0.606,0.648,-0.171,-0.831,0.12
0.374,-0.075,-1.022,-0.946,0.548,0.434,-0.984,0.611,0.607,0.568,0.662,0.604,0.646,-0.171,-0.832,0.12
0.375,-0.077,-1.024,-0.947,0.551,0.434,-0.986,0.61,0.605,0.566,0.66,0.602,0.645,-0.172,-0.836,0.121
0.376,-0.08,-1.027,-0.948,0.553,0.433,-0.987,0.612,0.608,0.568,0.663,0.603,0.646,-0.172,-0.837,0.118
0.377,-0.085,-1.028,-0.944,0.557,0.429,-0.987,0.616,0.612,0.573,0.666,0.607,0.648,-0.172,-0.836,0.117
0.378,-0.081,-1.026,-0.945,0.553,0.432,-0.986,0.616,0.613,0.571,0.663,0.607,0.648,-0.172,-0.833,0.117
0.379,-0.078,-1.024,-0.947,0.551,0.434,-0.986,0.613,0.61,0.57,0.662,0.604,0.645,-0.172,-0.833,0.117
0.38,-0.077,-1.024,-0.946,0.55,0.433,-0.985,0.613,0.607,0.569,0.661,0.602,0.645,-0.171,-0.832,0.116
0.381,-0.075,-1.018,-0.943,0.547,0.433,-0.981,0.61,0.605,0.566,0.658,0.599,0.642,-0.17,-0.827,0.117
0.382,-0.074,-1.016,-0.941,0.545,0.433,-0.978,0.608,0.604,0.565,0.657,0.598,0.641,-0.171,-0.825,0.117
0.383,-0.074,-1.018,-0.944,0.546,0.434,-0.981,0.61,0.605,0.566,0.655,0.598,0.641,-0.171,-0.826,0.117
0.384,-0.077,-1.018,-0.941,0.548,0.431,-0.98,0.61,0.606,0.567,0.656,0.597,0.641,-0.171,-0.828,0.118
0.385,-0.079,-1.016,-0.936,0.547,0.429,-0.976,0.61,0.606,0.566,0.657,0.598,0.64,-0.172,-0.827,0.116
0.386,-0.075,-1.015,-0.94,0.545,0.432,-0.978,0.609,0.607,0.568,0.656,0.599,0.64,-0.172,-0.827,0.115
0.387,-0.071,-1.012,-0.941,0.542,0.434,-0.977,0.607,0.604,0.567,0.656,0.596,0.638,-0.171,-0.825,0.117
0.388,-0.073,-1.014,-0.941,0.544,0.433,-0.977,0.608,0.605,0.568,0.656,0.598,0.64,-0.171,-0.826,0.119
0.389,-0.075,-1.019,-0.943,0.547,0.433,-0.981,0.607,0.605,0.569,0.656,0.599,0.64,-0.171,-0.83,0.12
0.39,-0.082,-1.023,-0.941,0.552,0.429,-0.982,0.612,0.605,0.569,0.655,0.597,0.638,-0.173,-0.833,0.118
0.391,-0.086,-1.027,-0.942,0.556,0.428,-0.985,0.616,0.608,0.571,0.658,0.599,0.641,-0.174,-0.836,0.117
0.392,-0.085,-1.032,-0.947,0.558,0.43,-0.989,0.614,0.607,0.571,0.659,0.598,0.641,-0.173,-0.839,0.118
0.393,-0.088,-1.032,-0.944,0.56,0.428,-0.988,0.615,0.607,0.572,0.658,0.597,0.642,-0.173,-0.84,0.118
0.394,-0.083,-1.03,-0.948,0.556,0.432,-0.989,0.613,0.605,0.57,0.656,0.598,0.64,-0.174,-0.838,0.117
0.395,-0.086,-1.036,-0.951,0.561,0.432,-0.993,0.613,0.602,0.568,0.655,0.597,0.638,-0.175,-0.843,0.119
0.396,-0.091,-1.037,-0.946,0.565,0.427,-0.992,0.616,0.604,0.57,0.657,0.6,0.64,-0.175,-0.844,0.119
0.397,-0.093,-1.038,-0.945,0.566,0.425,-0.992,0.622,0.608,0.573,0.661,0.602,0.645,-0.172,-0.846,0.117
0.398,-0.091,-1.038,-0.946,0.565,0.427,-0.992,0.621,0.609,0.574,0.661,0.603,0.646,-0.172,-0.844,0.116
0.399,-0.088,-1.034,-0.946,0.561,0.428,-0.99,0.618,0.608,0.572,0.659,0.6,0.642,-0.173,-0.839,0.116
0.4,-0.087,-1.028,-0.942,0.557,0.427,-0.985,0.617,0.607,0.571,0.659,0.6,0.641,-0.172,-0.836,0.114
0.401,-0.082,-1.022,-0.941,0.552,0.429,-0.982,0.614,0.605,0.569,0.655,0.598,0.64,-0.172,-0.832,0.115
0.402,-0.078,-1.019,-0.941,0.549,0.431,-0.98,0.614,0.603,0.568,0.655,0.596,0.639,-0.171,-0.832,0.116
0.403,-0.078,-1.02,-0.942,0.549,0.431,-0.981,0.614,0.605,0.568,0.656,0.597,0.639,-0.171,-0.832,0.115
0.404,-0.081,-1.021,-0.94,0.551,0.429,-0.981,0.615,0.607,0.569,0.655,0.595,0.64,-0.172,-0.831,0.116
0.405,-0.085,-1.018,-0.933,0.551,0.424,-0.976,0.616,0.606,0.569,0.655,0.595,0.64,-0.172,-0.827,0.114
0.406,-0.08,-1.018,-0.939,0.549,0.429,-0.978,0.614,0.604,0.568,0.654,0.594,0.638,-0.172,-0.824,0.114
0.407,-0.076,-1.017,-0.941,0.547,0.432,-0.979,0.61,0.602,0.564,0.652,0.593,0.637,-0.171,-0.823,0.116
0.408,-0.081,-1.022,-0.941,0.551,0.429,-0.981,0.612,0.603,0.565,0.654,0.594,0.638,-0.172,-0.827,0.117
0.409,-0.082,-1.028,-0.946,0.555,0.431,-0.987,0.615,0.601,0.568,0.655,0.594,0.639,-0.173,-0.833,0.117
0.41,-0.085,-1.03,-0.946,0.558,0.43,-0.988,0.617,0.602,0.568,0.655,0.596,0.639,-0.173,-0.834,0.118
0.411,-0.087,-1.036,-0.95,0.562,0.431,-0.993,0.619,0.604,0.569,0.659,0.599,0.64,-0.173,-0.837,0.117
0.412,-0.089,-1.038,-0.951,0.564,0.43,-0.995,0.618,0.604,0.57,0.657,0.598,0.641,-0.174,-0.839,0.117
0.413,-0.088,-1.037,-0.949,0.562,0.43,-0.993,0.618,0.603,0.57,0.657,0.599,0.641,-0.173,-0.838,0.118
0.414,-0.085,-1.036,-0.952,0.561,0.433,-0.994,0.616,0.601,0.569,0.657,0.598,0.641,-0.171,-0.837,0.118
0.415,-0.087,-1.041,-0.954,0.564,0.433,-0.998,0.615,0.6,0.568,0.654,0.596,0.639,-0.171,-0.841,0.12
0.416,-0.09,-1.043,-0.953,0.567,0.431,-0.998,0.618,0.606,0.57,0.658,0.598,0.639,-0.173,-0.845,0.117
0.417,-0.097,-1.045,-0.948,0.571,0.425,-0.997,0.625,0.616,0.575,0.662,0.601,0.639,-0.174,-0.845,0.114
0.418,-0.096,-1.045,-0.949,0.571,0.426,-0.997,0.629,0.623,0.581,0.666,0.602,0.639,-0.173,-0.845,0.111
0.419,-0.095,-1.042,-0.948,0.569,0.426,-0.995,0.635,0.633,0.589,0.671,0.603,0.639,-0.174,-0.842,0.105
0.42,-0.095,-1.038,-0.944,0.567,0.424,-0.992,0.64,0.642,0.597,0.675,0.603,0.637,-0.174,-0.838,0.1
0.421,-0.096,-1.034,-0.938,0.565,0.42,-0.986,0.648,0.655,0.608,0.681,0.602,0.634,-0.177,-0.833,0.093
0.422,-0.102,-1.032,-0.929,0.567,0.413,-0.98,0.661,0.676,0.626,0.693,0.606,0.631,-0.18,-0.826,0.082
0.423,-0.106,-1.034,-0.927,0.571,0.41,-0.98,0.678,0.705,0.65,0.708,0.611,0.631,-0.179,-0.828,0.067
0.424,-0.115,-1.038,-0.923,0.577,0.404,-0.981,0.697,0.735,0.674,0.724,0.615,0.629,-0.182,-0.832,0.054
0.425,-0.121,-1.038,-0.917,0.58,0.398,-0.978,0.718,0.765,0.699,0.739,0.617,0.625,-0.187,-0.828,0.037
0.426,-0.129,-1.04,-0.911,0.584,0.392,-0.975,0.74,0.801,0.725,0.752,0.617,0.619,-0.19,-0.823,0.022
0.427,-0.13,-1.039,-0.909,0.585,0.39,-0.975,0.754,0.827,0.743,0.764,0.618,0.613,-0.193,-0.816,0.009
0.428,-0.132,-1.034,-0.903,0.583,0.386,-0.969,0.763,0.848,0.761,0.78,0.627,0.617,-0.192,-0.812,-0.002
0.429,-0.134,-1.03,-0.896,0.583,0.381,-0.964,0.77,0.866,0.78,0.795,0.638,0.624,-0.186,-0.808,-0.012
0.43,-0.139,-1.028,-0.889,0.584,0.375,-0.959,0.782,0.887,0.795,0.805,0.642,0.627,-0.187,-0.802,-0.021
0.431,-0.143,-1.024,-0.88,0.584,0.368,-0.952,0.799,0.913,0.811,0.815,0.646,0.628,-0.189,-0.799,-0.031
0.432,-0.136,-1.016,-0.88,0.576,0.372,-0.949,0.805,0.928,0.821,0.823,0.653,0.634,-0.178,-0.796,-0.04
0.433,-0.13,-0.998,-0.869,0.564,0.369,-0.933,0.806,0.938,0.83,0.832,0.661,0.642,-0.172,-0.783,-0.048
0.434,-0.127,-0.991,-0.865,0.559,0.368,-0.927,0.817,0.962,0.848,0.844,0.665,0.642,-0.172,-0.778,-0.059
0.435,-0.111,-0.993,-0.882,0.552,0.385,-0.938,0.824,0.994,0.872,0.862,0.677,0.65,-0.157,-0.784,-0.066
0.436,-0.098,-0.982,-0.884,0.54,0.393,-0.933,0.826,1.017,0.895,0.883,0.696,0.666,-0.14,-0.779,-0.075
0.437,-0.088,-0.971,-0.882,0.53,0.397,-0.927,0.824,1.026,0.905,0.897,0.713,0.682,-0.124,-0.774,-0.08
0.438,-0.067,-0.951,-0.883,0.509,0.408,-0.917,0.801,1.012,0.899,0.9,0.728,0.701,-0.104,-0.762,-0.073
0.439,-0.043,-0.927,-0.885,0.485,0.421,-0.906,0.784,1.015,0.912,0.92,0.751,0.725,-0.077,-0.746,-0.074
0.44,-0.007,-0.91,-0.903,0.459,0.448,-0.907,0.767,1.029,0.932,0.951,0.784,0.752,-0.042,-0.741,-0.077
0.441,0.032,-0.882,-0.913,0.425,0.472,-0.897,0.741,1.028,0.944,0.972,0.815,0.784,-0.005,-0.725,-0.074
0.442,0.073,-0.839,-0.912,0.383,0.493,-0.876,0.709,1.027,0.96,0.999,0.857,0.83,0.04,-0.699,-0.07
0.443,0.129,-0.797,-0.926,0.335,0.527,-0.862,0.659,1.01,0.966,1.028,0.906,0.884,0.094,-0.678,-0.058
0.444,0.2,-0.742,-0.941,0.271,0.57,-0.841,0.59,0.97,0.958,1.056,0.968,0.954,0.162,-0.646,-0.034
0.445,0.278,-0.684,-0.962,0.203,0.62,-0.823,0.517,0.938,0.964,1.095,1.036,1.028,0.238,-0.615,-0.015
0.446,0.346,-0.64,-0.988,0.147,0.667,-0.814,0.46,0.934,0.998,1.153,1.111,1.099,0.31,-0.588,-0.01
0.447,0.406,-0.577,-0.983,0.086,0.694,-0.779,0.406,0.906,1.01,1.191,1.172,1.163,0.367,-0.536,-0.001
0.448,0.445,-0.507,-0.953,0.031,0.699,-0.73,0.349,0.845,0.991,1.206,1.221,1.226,0.412,-0.476,0.013
0.449,0.487,-0.444,-0.931,-0.021,0.71,-0.688,0.285,0.765,0.964,1.221,1.282,1.3,0.465,-0.422,0.033
0.45,0.546,-0.36,-0.907,-0.093,0.727,-0.633,0.202,0.653,0.917,1.228,1.347,1.383,0.525,-0.355,0.061
0.451,0.61,-0.292,-0.902,-0.159,0.756,-0.597,0.123,0.54,0.865,1.234,1.418,1.472,0.594,-0.305,0.092
0.452,0.661,-0.256,-0.918,-0.203,0.79,-0.588,0.066,0.45,0.831,1.254,1.486,1.549,0.659,-0.283,0.112
0.453,0.703,-0.218,-0.921,-0.242,0.812,-0.57,0.015,0.358,0.798,1.273,1.552,1.623,0.72,-0.254,0.129
0.454,0.753,-0.191,-0.944,-0.281,0.849,-0.567,-0.038,0.25,0.754,1.284,1.613,1.694,0.782,-0.24,0.149
0.455,0.806,-0.186,-0.993,-0.31,0.899,-0.59,-0.072,0.183,0.749,1.323,1.677,1.756,0.843,-0.25,0.153
0.456,0.856,-0.206,-1.062,-0.325,0.959,-0.634,-0.088,0.158,0.765,1.369,1.74,1.81,0.905,-0.282,0.152
0.457,0.896,-0.231,-1.127,-0.333,1.012,-0.679,-0.115,0.089,0.739,1.383,1.786,1.855,0.955,-0.319,0.169
0.458,0.929,-0.26,-1.19,-0.335,1.06,-0.725,-0.131,0.043,0.723,1.397,1.82,1.887,0.992,-0.351,0.179
0.459,0.915,-0.309,-1.225,-0.303,1.07,-0.767,-0.105,0.034,0.711,1.391,1.812,1.877,0.987,-0.391,0.183
0.46,0.83,-0.349,-1.179,-0.24,1.005,-0.764,-0.062,-0.009,0.657,1.343,1.769,1.841,0.933,-0.402,0.194
0.461,0.706,-0.396,-1.102,-0.154,0.903,-0.749,0.009,-0.032,0.608,1.272,1.682,1.762,0.834,-0.406,0.196
0.462,0.591,-0.459,-1.05,-0.066,0.821,-0.754,0.079,-0.056,0.544,1.185,1.575,1.666,0.726,-0.43,0.203
0.463,0.508,-0.533,-1.042,0.013,0.775,-0.787,0.121,-0.092,0.484,1.115,1.494,1.585,0.642,-0.475,0.211
0.464,0.435,-0.617,-1.053,0.09,0.744,-0.835,0.165,-0.111,0.42,1.03,1.387,1.482,0.548,-0.537,0.224
0.465,0.377,-0.662,-1.04,0.142,0.709,-0.851,0.197,-0.121,0.364,0.954,1.295,1.395,0.469,-0.567,0.235
0.466,0.324,-0.69,-1.014,0.182,0.669,-0.852,0.235,-0.113,0.333,0.894,1.212,1.314,0.39,-0.577,0.233
0.467,0.256,-0.721,-0.978,0.233,0.617,-0.85,0.275,-0.143,0.251,0.785,1.091,1.212,0.287,-0.586,0.245
0.468,0.166,-0.748,-0.912,0.291,0.538,-0.83,0.31,-0.206,0.145,0.652,0.955,1.097,0.166,-0.589,0.261
0.469,0.073,-0.775,-0.849,0.351,0.461,-0.812,0.344,-0.286,0.027,0.509,0.811,0.979,0.036,-0.594,0.279
0.47,-0.001,-0.806,-0.806,0.404,0.403,-0.806,0.381,-0.336,-0.07,0.389,0.693,0.882,-0.07,-0.603,0.294
0.471,-0.065,-0.838,-0.773,0.452,0.353,-0.805,0.441,-0.328,-0.125,0.293,0.587,0.795,-0.161,-0.613,0.3
0.472,-0.13,-0.878,-0.748,0.504,0.309,-0.813,0.496,-0.309,-0.166,0.215,0.497,0.716,-0.239,-0.635,0.31
0.473,-0.177,-0.921,-0.745,0.549,0.283,-0.833,0.535,-0.27,-0.164,0.189,0.444,0.654,-0.292,-0.669,0.311
0.474,-0.203,-0.963,-0.759,0.584,0.278,-0.861,0.565,-0.225,-0.151,0.171,0.396,0.595,-0.337,-0.7,0.307
0.475,-0.228,-1.01,-0.781,0.619,0.277,-0.895,0.594,-0.179,-0.145,0.151,0.352,0.542,-0.376,-0.736,0.311
0.476,-0.241,-1.044,-0.803,0.643,0.281,-0.923,0.616,-0.131,-0.128,0.151,0.338,0.52,-0.389,-0.762,0.312
0.477,-0.245,-1.09,-0.845,0.668,0.299,-0.967,0.643,-0.054,-0.082,0.172,0.336,0.506,-0.385,-0.806,0.31
0.478,-0.253,-1.145,-0.892,0.699,0.32,-1.018,0.698,0.043,-0.033,0.19,0.324,0.482,-0.388,-0.858,0.298
0.479,-0.259,-1.19,-0.932,0.725,0.337,-1.061,0.749,0.139,0.015,0.206,0.311,0.459,-0.391,-0.899,0.284
0.48,-0.255,-1.227,-0.972,0.741,0.358,-1.099,0.78,0.222,0.064,0.232,0.311,0.447,-0.382,-0.937,0.274
0.481,-0.246,-1.25,-1.003,0.748,0.378,-1.126,0.796,0.279,0.097,0.249,0.31,0.437,-0.374,-0.958,0.265
0.482,-0.239,-1.275,-1.036,0.757,0.398,-1.155,0.807,0.33,0.128,0.267,0.307,0.427,-0.369,-0.989,0.257
0.483,-0.244,-1.3,-1.055,0.772,0.405,-1.177,0.814,0.357,0.149,0.279,0.308,0.42,-0.368,-1.014,0.249
0.484,-0.245,-1.315,-1.069,0.78,0.411,-1.192,0.801,0.371,0.169,0.293,0.311,0.417,-0.364,-1.033,0.244
0.485,-0.234,-1.312,-1.078,0.773,0.422,-1.195,0.785,0.399,0.201,0.321,0.328,0.425,-0.348,-1.038,0.235
0.486,-0.221,-1.293,-1.071,0.757,0.425,-1.183,0.766,0.417,0.234,0.351,0.349,0.438,-0.333,-1.026,0.222
0.487,-0.204,-1.266,-1.06,0.735,0.428,-1.163,0.741,0.428,0.263,0.378,0.369,0.454,-0.321,-1.002,0.21
0.488,-0.196,-1.244,-1.048,0.72,0.426,-1.146,0.741,0.455,0.297,0.41,0.393,0.47,-0.306,-0.986,0.195
0.489,-0.195,-1.23,-1.035,0.713,0.42,-1.133,0.746,0.477,0.332,0.441,0.415,0.486,-0.293,-0.98,0.178
0.49,-0.191,-1.214,-1.024,0.703,0.417,-1.119,0.748,0.496,0.363,0.469,0.437,0.502,-0.281,-0.967,0.164
0.491,-0.177,-1.204,-1.026,0.691,0.424,-1.115,0.75,0.523,0.398,0.499,0.461,0.522,-0.26,-0.96,0.155
0.492,-0.161,-1.192,-1.031,0.676,0.435,-1.111,0.752,0.551,0.431,0.527,0.483,0.54,-0.237,-0.956,0.147
0.493,-0.14,-1.177,-1.038,0.658,0.449,-1.107,0.747,0.579,0.463,0.556,0.503,0.556,-0.215,-0.95,0.141
0.494,-0.119,-1.159,-1.04,0.639,0.46,-1.099,0.726,0.591,0.485,0.576,0.522,0.573,-0.197,-0.937,0.139
0.495,-0.111,-1.142,-1.032,0.626,0.461,-1.087,0.71,0.595,0.501,0.592,0.537,0.585,-0.187,-0.924,0.136
0.496,-0.103,-1.13,-1.027,0.617,0.462,-1.079,0.704,0.611,0.524,0.613,0.551,0.597,-0.176,-0.917,0.13
0.497,-0.096,-1.117,-1.021,0.607,0.463,-1.069,0.695,0.629,0.546,0.63,0.568,0.61,-0.165,-0.908,0.123
0.498,-0.083,-1.101,-1.018,0.593,0.468,-1.06,0.68,0.643,0.56,0.643,0.578,0.619,-0.158,-0.897,0.121
0.499,-0.069,-1.085,-1.016,0.577,0.473,-1.05,0.667,0.654,0.573,0.654,0.585,0.625,-0.152,-0.884,0.119
0.5,-0.058,-1.064,-1.006,0.561,0.473,-1.035,0.658,0.658,0.582,0.661,0.59,0.629,-0.148,-0.867,0.115
0.501,-0.05,-1.042,-0.993,0.546,0.471,-1.018,0.65,0.661,0.59,0.668,0.597,0.634,-0.148,-0.849,0.11
0.502,-0.047,-1.028,-0.981,0.538,0.467,-1.004,0.646,0.668,0.6,0.675,0.603,0.639,-0.146,-0.837,0.107
0.503,-0.045,-1.018,-0.973,0.532,0.464,-0.996,0.641,0.673,0.607,0.682,0.608,0.644,-0.144,-0.826,0.105
0.504,-0.046,-1.007,-0.962,0.527,0.458,-0.985,0.642,0.679,0.615,0.691,0.614,0.648,-0.145,-0.815,0.103
0.505,-0.045,-0.997,-0.951,0.521,0.453,-0.974,0.644,0.685,0.624,0.697,0.62,0.654,-0.143,-0.806,0.099
0.506,-0.043,-0.989,-0.946,0.516,0.451,-0.967,0.641,0.687,0.627,0.7,0.623,0.655,-0.143,-0.797,0.097
0.507,-0.038,-0.982,-0.944,0.51,0.452,-0.963,0.637,0.688,0.63,0.702,0.624,0.656,-0.142,-0.789,0.098
0.508,-0.038,-0.98,-0.942,0.509,0.452,-0.961,0.637,0.691,0.634,0.704,0.626,0.657,-0.141,-0.787,0.098
0.509,-0.044,-0.983,-0.939,0.514,0.447,-0.961,0.642,0.693,0.636,0.705,0.626,0.657,-0.143,-0.79,0.096
0.51,-0.051,-0.991,-0.939,0.521,0.443,-0.965,0.648,0.699,0.641,0.708,0.626,0.66,-0.144,-0.796,0.095
0.511,-0.054,-0.994,-0.94,0.524,0.443,-0.967,0.648,0.702,0.644,0.712,0.629,0.661,-0.142,-0.799,0.096
0.512,-0.052,-0.995,-0.942,0.524,0.445,-0.969,0.647,0.703,0.645,0.713,0.631,0.661,-0.141,-0.8,0.095
0.513,-0.051,-0.994,-0.942,0.522,0.445,-0.968,0.648,0.705,0.647,0.714,0.631,0.662,-0.14,-0.801,0.095
0.514,-0.048,-0.99,-0.942,0.519,0.447,-0.966,0.646,0.705,0.647,0.714,0.632,0.662,-0.139,-0.797,0.095
0.515,-0.046,-0.992,-0.946,0.519,0.449,-0.969,0.642,0.704,0.648,0.714,0.632,0.662,-0.139,-0.797,0.095
0.516,-0.048,-0.994,-0.946,0.521,0.449,-0.97,0.642,0.705,0.65,0.717,0.633,0.664,-0.139,-0.797,0.094
0.517,-0.051,-0.994,-0.942,0.523,0.445,-0.968,0.643,0.708,0.653,0.721,0.635,0.666,-0.135,-0.797,0.093
0.518,-0.049,-0.993,-0.944,0.521,0.447,-0.968,0.641,0.708,0.654,0.72,0.636,0.666,-0.134,-0.797,0.091
0.519,-0.043,-0.988,-0.945,0.515,0.451,-0.967,0.638,0.706,0.653,0.721,0.636,0.665,-0.132,-0.793,0.091
0.52,-0.041,-0.982,-0.941,0.511,0.45,-0.961,0.634,0.706,0.653,0.722,0.637,0.666,-0.131,-0.788,0.09
0.521,-0.038,-0.976,-0.938,0.507,0.45,-0.957,0.631,0.704,0.653,0.722,0.636,0.667,-0.129,-0.784,0.09
0.522,-0.033,-0.971,-0.938,0.502,0.452,-0.955,0.629,0.704,0.653,0.723,0.638,0.668,-0.127,-0.78,0.09
0.523,-0.03,-0.968,-0.938,0.5,0.453,-0.953,0.627,0.705,0.654,0.725,0.639,0.669,-0.128,-0.778,0.089
0.524,-0.032,-0.968,-0.936,0.5,0.452,-0.953,0.628,0.706,0.655,0.727,0.639,0.67,-0.128,-0.782,0.09
0.525,-0.028,-0.962,-0.933,0.495,0.453,-0.948,0.627,0.707,0.658,0.728,0.641,0.671,-0.126,-0.779,0.089
0.526,-0.022,-0.957,-0.935,0.49,0.456,-0.946,0.625,0.706,0.657,0.73,0.643,0.673,-0.123,-0.775,0.087
0.527,-0.019,-0.958,-0.939,0.489,0.459,-0.948,0.621,0.703,0.655,0.728,0.64,0.671,-0.123,-0.773,0.089
0.528,-0.022,-0.961,-0.938,0.492,0.458,-0.95,0.619,0.703,0.656,0.728,0.64,0.671,-0.124,-0.775,0.091
0.529,-0.026,-0.964,-0.938,0.495,0.456,-0.951,0.62,0.705,0.656,0.729,0.642,0.672,-0.125,-0.781,0.09
0.53,-0.029,-0.969,-0.94,0.499,0.455,-0.954,0.621,0.706,0.66,0.73,0.644,0.675,-0.124,-0.785,0.091
0.531,-0.032,-0.973,-0.942,0.502,0.455,-0.958,0.622,0.71,0.665,0.734,0.647,0.676,-0.124,-0.786,0.091
0.532,-0.031,-0.972,-0.941,0.502,0.455,-0.957,0.622,0.712,0.667,0.736,0.648,0.678,-0.123,-0.787,0.09
0.533,-0.028,-0.97,-0.942,0.499,0.457,-0.956,0.62,0.711,0.666,0.736,0.648,0.68,-0.122,-0.785,0.092
0.534,-0.024,-0.968,-0.944,0.496,0.46,-0.956,0.618,0.712,0.666,0.737,0.647,0.679,-0.122,-0.781,0.091
0.535,-0.023,-0.966,-0.943,0.494,0.46,-0.955,0.614,0.711,0.666,0.736,0.647,0.679,-0.12,-0.783,0.092
0.536,-0.022,-0.964,-0.942,0.493,0.459,-0.953,0.612,0.711,0.666,0.737,0.649,0.68,-0.12,-0.784,0.09
0.537,-0.025,-0.961,-0.936,0.493,0.456,-0.949,0.614,0.714,0.671,0.741,0.651,0.681,-0.12,-0.782,0.089
0.538,-0.022,-0.96,-0.936,0.491,0.457,-0.948,0.615,0.715,0.672,0.741,0.653,0.684,-0.118,-0.78,0.088
0.539,-0.019,-0.959,-0.939,0.489,0.46,-0.949,0.613,0.716,0.671,0.743,0.655,0.685,-0.117,-0.781,0.086
0.54,-0.014,-0.935,-0.921,0.475,0.454,-0.928,0.606,0.712,0.669,0.739,0.651,0.679,-0.115,-0.765,0.088
0.541,-0.007,-0.926,-0.919,0.467,0.456,-0.923,0.603,0.71,0.669,0.738,0.65,0.678,-0.114,-0.757,0.087
0.542,-0.009,-0.952,-0.943,0.481,0.467,-0.948,0.608,0.718,0.676,0.746,0.659,0.686,-0.114,-0.772,0.087
0.543,-0.015,-0.962,-0.946,0.488,0.465,-0.954,0.611,0.721,0.679,0.75,0.663,0.69,-0.113,-0.774,0.086
0.544,-0.013,-0.95,-0.936,0.481,0.462,-0.943,0.61,0.72,0.678,0.75,0.661,0.688,-0.113,-0.768,0.086
0.545,-0.008,-0.94,-0.932,0.474,0.462,-0.936,0.608,0.718,0.677,0.748,0.66,0.686,-0.112,-0.764,0.086
0.546,-0.004,-0.939,-0.936,0.471,0.466,-0.938,0.606,0.718,0.677,0.747,0.66,0.686,-0.11,-0.762,0.086
0.547,0.001,-0.938,-0.939,0.469,0.47,-0.939,0.6,0.717,0.678,0.747,0.659,0.684,-0.11,-0.762,0.087
0.548,-0.003,-0.937,-0.934,0.47,0.466,-0.936,0.601,0.718,0.677,0.748,0.66,0.685,-0.11,-0.76,0.089
0.549,-0.006,-0.939,-0.933,0.473,0.464,-0.936,0.603,0.718,0.678,0.75,0.66,0.688,-0.11,-0.764,0.09
0.55,-0.011,-0.946,-0.934,0.478,0.462,-0.94,0.603,0.722,0.681,0.753,0.662,0.689,-0.111,-0.77,0.089
0.551,-0.011,-0.95,-0.939,0.48,0.464,-0.945,0.605,0.725,0.684,0.755,0.666,0.69,-0.112,-0.773,0.09
0.552,-0.007,-0.949,-0.942,0.478,0.467,-0.945,0.604,0.725,0.687,0.757,0.668,0.694,-0.108,-0.774,0.09
0.553,-0.006,-0.947,-0.941,0.477,0.467,-0.944,0.601,0.727,0.688,0.759,0.669,0.694,-0.106,-0.771,0.091
0.554,-0.001,-0.944,-0.943,0.472,0.47,-0.943,0.6,0.727,0.689,0.759,0.669,0.693,-0.105,-0.767,0.091
0.555,-0.001,-0.945,-0.944,0.473,0.471,-0.945,0.598,0.727,0.689,0.761,0.67,0.694,-0.103,-0.769,0.092
0.556,-0.005,-0.949,-0.944,0.477,0.469,-0.947,0.6,0.729,0.69,0.762,0.672,0.695,-0.102,-0.772,0.092
0.557,-0.009,-0.95,-0.94,0.479,0.465,-0.945,0.603,0.733,0.694,0.766,0.674,0.699,-0.101,-0.773,0.09
0.558,-0.009,-0.948,-0.94,0.478,0.465,-0.944,0.603,0.734,0.697,0.767,0.675,0.701,-0.099,-0.773,0.09
0.559,-0.004,-0.943,-0.939,0.473,0.468,-0.941,0.599,0.732,0.698,0.765,0.675,0.701,-0.098,-0.766,0.09
0.56,0.001,-0.935,-0.936,0.468,0.469,-0.936,0.597,0.732,0.696,0.766,0.676,0.7,-0.097,-0.76,0.089
0.561,0.007,-0.93,-0.938,0.462,0.472,-0.933,0.595,0.732,0.698,0.766,0.674,0.699,-0.096,-0.757,0.088
0.562,0.011,-0.925,-0.935,0.458,0.472,-0.93,0.593,0.732,0.699,0.764,0.674,0.7,-0.095,-0.753,0.088
0.563,0.011,-0.924,-0.935,0.457,0.472,-0.929,0.592,0.734,0.7,0.766,0.673,0.699,-0.095,-0.753,0.087
0.564,0.01,-0.925,-0.935,0.458,0.472,-0.93,0.593,0.735,0.703,0.768,0.674,0.699,-0.096,-0.754,0.086
0.565,0.009,-0.922,-0.931,0.457,0.469,-0.926,0.594,0.739,0.705,0.771,0.676,0.702,-0.095,-0.752,0.084
0.566,0.011,-0.92,-0.931,0.455,0.47,-0.925,0.591,0.739,0.706,0.773,0.675,0.701,-0.096,-0.751,0.085
0.567,0.017,-0.918,-0.935,0.451,0.475,-0.926,0.587,0.736,0.704,0.769,0.676,0.699,-0.099,-0.75,0.085
0.568,0.015,-0.919,-0.934,0.452,0.475,-0.927,0.585,0.737,0.706,0.77,0.677,0.7,-0.097,-0.752,0.085
0.569,0.009,-0.923,-0.933,0.457,0.471,-0.928,0.588,0.741,0.71,0.774,0.68,0.703,-0.096,-0.754,0.087
0.57,0.004,-0.928,-0.932,0.463,0.468,-0.93,0.591,0.744,0.714,0.777,0.681,0.705,-0.095,-0.756,0.087
0.571,-0.001,-0.934,-0.933,0.468,0.467,-0.933,0.593,0.747,0.717,0.78,0.683,0.706,-0.096,-0.761,0.088
0.572,0.003,-0.935,-0.938,0.467,0.47,-0.936,0.592,0.75,0.718,0.781,0.685,0.708,-0.095,-0.761,0.088
0.573,0.004,-0.935,-0.94,0.466,0.472,-0.938,0.591,0.752,0.719,0.782,0.686,0.709,-0.091,-0.764,0.088
0.574,0.007,-0.932,-0.939,0.463,0.472,-0.935,0.589,0.754,0.723,0.783,0.687,0.709,-0.09,-0.759,0.087
0.575,0.007,-0.932,-0.939,0.463,0.472,-0.935,0.588,0.756,0.725,0.784,0.688,0.711,-0.089,-0.758,0.088
0.576,0.004,-0.935,-0.939,0.466,0.471,-0.937,0.59,0.757,0.728,0.787,0.69,0.713,-0.089,-0.764,0.089
0.577,0.004,-0.933,-0.937,0.465,0.47,-0.935,0.593,0.761,0.731,0.79,0.692,0.716,-0.087,-0.763,0.087
0.578,0.006,-0.931,-0.936,0.463,0.471,-0.934,0.593,0.763,0.732,0.792,0.694,0.719,-0.084,-0.759,0.086
0.579,0.01,-0.927,-0.938,0.459,0.473,-0.932,0.59,0.761,0.733,0.793,0.693,0.717,-0.084,-0.755,0.086
0.58,0.013,-0.923,-0.936,0.455,0.474,-0.93,0.585,0.759,0.732,0.79,0.692,0.715,-0.083,-0.752,0.086
0.581,0.015,-0.917,-0.932,0.452,0.473,-0.925,0.582,0.758,0.73,0.789,0.691,0.713,-0.083,-0.751,0.086
0.582,0.019,-0.912,-0.932,0.447,0.475,-0.922,0.582,0.759,0.73,0.79,0.69,0.713,-0.08,-0.749,0.087
0.583,0.021,-0.913,-0.934,0.446,0.477,-0.924,0.58,0.76,0.732,0.792,0.69,0.714,-0.079,-0.747,0.086
0.584,0.018,-0.916,-0.934,0.449,0.476,-0.925,0.583,0.762,0.735,0.794,0.692,0.715,-0.079,-0.749,0.086
0.585,0.018,-0.913,-0.931,0.448,0.475,-0.922,0.583,0.764,0.735,0.795,0.694,0.716,-0.077,-0.749,0.084
0.586,0.021,-0.91,-0.932,0.445,0.476,-0.921,0.58,0.765,0.735,0.796,0.693,0.715,-0.077,-0.747,0.084
0.587,0.028,-0.907,-0.934,0.441,0.48,-0.921,0.578,0.765,0.735,0.794,0.693,0.714,-0.075,-0.742,0.087
0.588,0.026,-0.908,-0.935,0.442,0.481,-0.922,0.576,0.764,0.737,0.795,0.694,0.714,-0.075,-0.741,0.086
0.589,0.024,-0.91,-0.934,0.444,0.478,-0.922,0.576,0.766,0.738,0.797,0.695,0.716,-0.075,-0.744,0.087
0.59,0.019,-0.915,-0.934,0.448,0.476,-0.925,0.58,0.771,0.743,0.8,0.698,0.718,-0.076,-0.748,0.087
0.591,0.013,-0.925,-0.939,0.456,0.476,-0.932,0.582,0.774,0.747,0.804,0.7,0.721,-0.075,-0.757,0.087
0.592,0.015,-0.927,-0.941,0.457,0.478,-0.934,0.581,0.776,0.749,0.805,0.702,0.722,-0.072,-0.758,0.088
0.593,0.017,-0.925,-0.943,0.455,0.479,-0.934,0.58,0.778,0.75,0.807,0.702,0.722,-0.072,-0.756,0.088
0.594,0.021,-0.923,-0.944,0.452,0.482,-0.933,0.578,0.777,0.75,0.809,0.703,0.724,-0.071,-0.753,0.087
0.595,0.024,-0.923,-0.947,0.45,0.485,-0.934,0.575,0.777,0.752,0.81,0.703,0.724,-0.07,-0.754,0.088
0.596,0.021,-0.925,-0.947,0.452,0.484,-0.936,0.575,0.78,0.753,0.814,0.705,0.725,-0.07,-0.756,0.088
0.597,0.018,-0.925,-0.942,0.454,0.479,-0.933,0.58,0.785,0.758,0.819,0.71,0.729,-0.069,-0.755,0.086
0.598,0.021,-0.922,-0.943,0.451,0.482,-0.932,0.58,0.787,0.762,0.821,0.711,0.73,-0.068,-0.753,0.086
0.599,0.027,-0.917,-0.945,0.446,0.485,-0.931,0.579,0.788,0.76,0.821,0.711,0.73,-0.065,-0.748,0.086
0.6,0.03,-0.91,-0.942,0.441,0.485,-0.926,0.577,0.788,0.76,0.822,0.709,0.729,-0.063,-0.746,0.086
0.601,0.037,-0.904,-0.941,0.433,0.488,-0.922,0.573,0.787,0.759,0.82,0.708,0.729,-0.061,-0.74,0.086
0.602,0.039,-0.899,-0.938,0.43,0.488,-0.918,0.571,0.789,0.76,0.821,0.711,0.73,-0.059,-0.736,0.086
0.603,0.038,-0.897,-0.935,0.43,0.486,-0.916,0.571,0.789,0.762,0.822,0.71,0.73,-0.059,-0.737,0.086
0.604,0.035,-0.901,-0.937,0.433,0.486,-0.919,0.57,0.792,0.762,0.822,0.71,0.73,-0.059,-0.739,0.087
0.605,0.035,-0.898,-0.933,0.431,0.484,-0.915,0.57,0.795,0.764,0.825,0.711,0.732,-0.058,-0.737,0.087
0.606,0.04,-0.893,-0.933,0.427,0.486,-0.913,0.569,0.793,0.764,0.825,0.71,0.732,-0.056,-0.733,0.086
0.607,0.046,-0.893,-0.94,0.423,0.493,-0.916,0.565,0.792,0.763,0.822,0.709,0.729,-0.056,-0.732,0.088
0.608,0.049,-0.891,-0.94,0.421,0.494,-0.915,0.565,0.793,0.763,0.823,0.709,0.728,-0.056,-0.73,0.088
0.609,0.048,-0.896,-0.944,0.424,0.495,-0.92,0.565,0.796,0.763,0.824,0.708,0.73,-0.056,-0.734,0.088
0.61,0.043,-0.901,-0.945,0.429,0.493,-0.923,0.567,0.799,0.766,0.826,0.71,0.733,-0.057,-0.74,0.088
0.611,0.038,-0.906,-0.945,0.434,0.491,-0.926,0.57,0.803,0.77,0.831,0.714,0.736,-0.057,-0.745,0.088
0.612,0.041,-0.91,-0.951,0.435,0.495,-0.93,0.567,0.806,0.772,0.833,0.716,0.736,-0.056,-0.747,0.088
0.613,0.042,-0.909,-0.951,0.434,0.496,-0.929,0.566,0.804,0.771,0.832,0.716,0.734,-0.055,-0.746,0.09
0.614,0.045,-0.909,-0.954,0.432,0.499,-0.931,0.565,0.804,0.773,0.831,0.715,0.734,-0.053,-0.745,0.089
0.615,0.049,-0.91,-0.96,0.431,0.504,-0.935,0.562,0.806,0.775,0.834,0.716,0.735,-0.053,-0.746,0.09
0.616,0.048,-0.91,-0.959,0.431,0.503,-0.935,0.564,0.808,0.777,0.834,0.72,0.739,-0.05,-0.746,0.091
0.617,0.043,-0.912,-0.956,0.434,0.499,-0.934,0.564,0.815,0.78,0.839,0.722,0.743,-0.049,-0.746,0.09
0.618,0.043,-0.91,-0.954,0.434,0.498,-0.932,0.564,0.815,0.78,0.84,0.722,0.743,-0.05,-0.748,0.088
0.619,0.046,-0.905,-0.951,0.43,0.498,-0.928,0.564,0.816,0.779,0.838,0.721,0.744,-0.048,-0.743,0.088
0.62,0.045,-0.9,-0.946,0.427,0.495,-0.923,0.562,0.819,0.781,0.839,0.722,0.744,-0.046,-0.74,0.088
0.621,0.05,-0.895,-0.945,0.423,0.496,-0.92,0.556,0.817,0.78,0.837,0.721,0.743,-0.045,-0.735,0.088
0.622,0.054,-0.89,-0.944,0.418,0.499,-0.917,0.553,0.816,0.778,0.836,0.719,0.742,-0.045,-0.73,0.088
0.623,0.058,-0.887,-0.945,0.414,0.501,-0.916,0.554,0.816,0.78,0.836,0.72,0.744,-0.043,-0.73,0.088
0.624,0.059,-0.886,-0.946,0.414,0.502,-0.916,0.552,0.819,0.78,0.838,0.72,0.746,-0.042,-0.729,0.09
0.625,0.059,-0.884,-0.943,0.412,0.5,-0.913,0.552,0.82,0.78,0.84,0.72,0.747,-0.043,-0.728,0.089
0.626,0.059,-0.883,-0.943,0.412,0.501,-0.913,0.552,0.819,0.78,0.837,0.719,0.747,-0.04,-0.727,0.091
0.627,0.064,-0.882,-0.946,0.409,0.504,-0.914,0.548,0.819,0.78,0.837,0.719,0.745,-0.041,-0.727,0.093
0.628,0.066,-0.879,-0.946,0.407,0.505,-0.912,0.547,0.821,0.779,0.836,0.719,0.745,-0.041,-0.724,0.095
0.629,0.071,-0.881,-0.953,0.406,0.512,-0.917,0.547,0.821,0.778,0.837,0.72,0.747,-0.04,-0.727,0.096
0.63,0.075,-0.884,-0.96,0.405,0.517,-0.922,0.546,0.823,0.78,0.837,0.721,0.748,-0.041,-0.731,0.097
0.631,0.063,-0.895,-0.958,0.416,0.51,-0.926,0.548,0.825,0.78,0.837,0.722,0.748,-0.043,-0.736,0.099
0.632,0.059,-0.902,-0.96,0.422,0.509,-0.931,0.55,0.826,0.781,0.838,0.722,0.75,-0.042,-0.742,0.101
0.633,0.064,-0.898,-0.962,0.417,0.512,-0.929,0.548,0.828,0.781,0.838,0.724,0.752,-0.039,-0.741,0.102
0.634,0.069,-0.893,-0.963,0.413,0.515,-0.928,0.547,0.828,0.781,0.837,0.723,0.751,-0.039,-0.737,0.1
0.635,0.073,-0.893,-0.967,0.41,0.519,-0.93,0.545,0.827,0.78,0.834,0.721,0.751,-0.039,-0.736,0.101
0.636,0.068,-0.895,-0.964,0.414,0.515,-0.929,0.545,0.826,0.777,0.834,0.721,0.751,-0.041,-0.739,0.103
0.637,0.064,-0.894,-0.959,0.415,0.511,-0.926,0.546,0.83,0.779,0.834,0.723,0.753,-0.04,-0.741,0.102
0.638,0.066,-0.893,-0.959,0.413,0.512,-0.926,0.546,0.833,0.78,0.835,0.724,0.755,-0.037,-0.736,0.102
0.639,0.071,-0.889,-0.96,0.409,0.515,-0.924,0.544,0.831,0.777,0.834,0.725,0.755,-0.037,-0.733,0.103
0.64,0.075,-0.882,-0.958,0.404,0.516,-0.919,0.54,0.83,0.775,0.83,0.725,0.754,-0.036,-0.73,0.103
0.641,0.081,-0.875,-0.956,0.398,0.518,-0.916,0.536,0.825,0.773,0.826,0.721,0.753,-0.034,-0.724,0.104
0.642,0.085,-0.869,-0.954,0.392,0.519,-0.911,0.533,0.823,0.77,0.824,0.72,0.751,-0.034,-0.721,0.104
0.643,0.086,-0.867,-0.953,0.391,0.518,-0.909,0.533,0.824,0.771,0.825,0.72,0.753,-0.033,-0.719,0.105
0.644,0.086,-0.865,-0.951,0.39,0.518,-0.908,0.533,0.823,0.771,0.824,0.719,0.754,-0.033,-0.72,0.107
0.645,0.085,-0.861,-0.946,0.389,0.515,-0.903,0.532,0.824,0.77,0.824,0.719,0.755,-0.032,-0.719,0.106
0.646,0.087,-0.859,-0.946,0.386,0.516,-0.902,0.529,0.824,0.767,0.822,0.718,0.753,-0.032,-0.713,0.108
0.647,0.092,-0.857,-0.95,0.383,0.52,-0.903,0.525,0.821,0.762,0.818,0.717,0.752,-0.03,-0.712,0.111
0.648,0.095,-0.856,-0.95,0.381,0.521,-0.902,0.523,0.819,0.76,0.815,0.715,0.752,-0.03,-0.71,0.113
0.649,0.09,-0.857,-0.947,0.384,0.518,-0.901,0.525,0.819,0.76,0.814,0.714,0.751,-0.032,-0.71,0.115
0.65,0.089,-0.86,-0.949,0.385,0.519,-0.904,0.525,0.822,0.761,0.814,0.715,0.754,-0.032,-0.714,0.115
0.651,0.087,-0.863,-0.95,0.388,0.518,-0.906,0.527,0.824,0.762,0.815,0.717,0.754,-0.034,-0.716,0.117
0.652,0.082,-0.868,-0.95,0.394,0.515,-0.909,0.529,0.825,0.764,0.816,0.719,0.757,-0.034,-0.72,0.117
0.653,0.084,-0.867,-0.951,0.392,0.517,-0.908,0.526,0.825,0.762,0.814,0.717,0.755,-0.034,-0.72,0.117
0.654,0.088,-0.863,-0.95,0.388,0.519,-0.906,0.523,0.822,0.759,0.812,0.715,0.755,-0.032,-0.714,0.118
0.655,0.088,-0.863,-0.952,0.388,0.52,-0.907,0.522,0.822,0.757,0.81,0.716,0.756,-0.032,-0.713,0.119
0.656,0.087,-0.863,-0.951,0.388,0.519,-0.907,0.522,0.822,0.755,0.808,0.715,0.755,-0.034,-0.713,0.119
0.657,0.085,-0.862,-0.947,0.389,0.515,-0.904,0.525,0.824,0.756,0.809,0.717,0.758,-0.034,-0.715,0.118
0.658,0.086,-0.859,-0.944,0.387,0.514,-0.901,0.524,0.826,0.755,0.808,0.719,0.759,-0.033,-0.712,0.118
0.659,0.09,-0.853,-0.943,0.382,0.516,-0.898,0.521,0.824,0.754,0.806,0.718,0.76,-0.033,-0.705,0.119
0.66,0.095,-0.846,-0.94,0.376,0.517,-0.893,0.519,0.822,0.751,0.804,0.716,0.76,-0.032,-0.698,0.119
0.661,0.1,-0.836,-0.936,0.368,0.518,-0.886,0.515,0.819,0.747,0.8,0.714,0.759,-0.029,-0.689,0.118
0.662,0.103,-0.831,-0.934,0.364,0.518,-0.882,0.512,0.817,0.747,0.799,0.712,0.76,-0.029,-0.685,0.118
0.663,0.102,-0.829,-0.931,0.364,0.516,-0.88,0.511,0.816,0.744,0.797,0.711,0.759,-0.028,-0.683,0.119
0.664,0.102,-0.828,-0.93,0.363,0.516,-0.879,0.51,0.814,0.743,0.796,0.712,0.76,-0.029,-0.682,0.12
0.665,0.103,-0.823,-0.925,0.36,0.514,-0.874,0.512,0.816,0.745,0.796,0.716,0.762,-0.029,-0.677,0.119
0.666,0.104,-0.819,-0.922,0.357,0.513,-0.871,0.509,0.813,0.741,0.795,0.717,0.762,-0.027,-0.675,0.119
0.667,0.108,-0.816,-0.924,0.354,0.516,-0.87,0.505,0.809,0.739,0.793,0.716,0.762,-0.027,-0.672,0.12
0.668,0.11,-0.811,-0.921,0.35,0.515,-0.867,0.503,0.807,0.737,0.791,0.716,0.761,-0.028,-0.667,0.121
0.669,0.106,-0.814,-0.919,0.354,0.512,-0.867,0.505,0.809,0.737,0.791,0.719,0.763,-0.028,-0.668,0.121
0.67,0.103,-0.818,-0.921,0.357,0.512,-0.87,0.507,0.811,0.74,0.793,0.72,0.766,-0.028,-0.671,0.12
0.671,0.102,-0.82,-0.922,0.359,0.512,-0.871,0.507,0.81,0.741,0.794,0.722,0.769,-0.027,-0.673,0.12
0.672,0.098,-0.822,-0.919,0.362,0.508,-0.871,0.51,0.813,0.743,0.798,0.725,0.773,-0.026,-0.672,0.119
0.673,0.102,-0.819,-0.92,0.359,0.51,-0.87,0.508,0.81,0.74,0.796,0.725,0.774,-0.025,-0.672,0.12
0.674,0.105,-0.814,-0.919,0.354,0.512,-0.867,0.507,0.806,0.739,0.795,0.726,0.775,-0.025,-0.671,0.118
0.675,0.103,-0.815,-0.918,0.356,0.51,-0.867,0.506,0.807,0.739,0.797,0.726,0.777,-0.022,-0.67,0.117
0.676,0.103,-0.813,-0.916,0.355,0.51,-0.865,0.507,0.808,0.74,0.798,0.729,0.779,-0.021,-0.668,0.117
0.677,0.099,-0.81,-0.909,0.356,0.504,-0.86,0.513,0.811,0.743,0.802,0.734,0.782,-0.02,-0.667,0.115
0.678,0.096,-0.81,-0.906,0.357,0.501,-0.859,0.516,0.811,0.745,0.804,0.735,0.784,-0.018,-0.668,0.113
0.679,0.102,-0.803,-0.905,0.351,0.503,-0.854,0.516,0.81,0.745,0.803,0.736,0.784,-0.016,-0.661,0.111
0.68,0.107,-0.798,-0.905,0.346,0.506,-0.852,0.516,0.808,0.744,0.801,0.737,0.783,-0.015,-0.655,0.107
0.681,0.11,-0.792,-0.902,0.342,0.505,-0.847,0.515,0.806,0.743,0.8,0.734,0.781,-0.018,-0.65,0.104
0.682,0.111,-0.787,-0.897,0.339,0.504,-0.843,0.515,0.805,0.743,0.8,0.735,0.781,-0.017,-0.645,0.103
0.683,0.108,-0.787,-0.895,0.34,0.502,-0.842,0.519,0.807,0.745,0.801,0.737,0.782,-0.018,-0.644,0.101
0.684,0.103,-0.787,-0.89,0.342,0.496,-0.839,0.524,0.807,0.744,0.803,0.735,0.78,-0.021,-0.643,0.099
0.685,0.102,-0.784,-0.885,0.342,0.493,-0.835,0.528,0.806,0.745,0.801,0.736,0.779,-0.022,-0.641,0.095
0.686,0.103,-0.781,-0.884,0.34,0.493,-0.833,0.53,0.807,0.746,0.803,0.737,0.778,-0.023,-0.637,0.092
0.687,0.104,-0.78,-0.884,0.338,0.494,-0.833,0.533,0.804,0.743,0.801,0.734,0.774,-0.028,-0.635,0.091
0.688,0.101,-0.783,-0.884,0.342,0.492,-0.834,0.536,0.802,0.741,0.799,0.733,0.772,-0.032,-0.636,0.09
0.689,0.092,-0.789,-0.882,0.349,0.486,-0.836,0.541,0.801,0.741,0.799,0.734,0.771,-0.035,-0.641,0.09
0.69,0.085,-0.796,-0.881,0.356,0.483,-0.839,0.546,0.801,0.741,0.799,0.733,0.77,-0.04,-0.647,0.087
0.691,0.078,-0.805,-0.883,0.364,0.48,-0.845,0.553,0.803,0.741,0.799,0.733,0.768,-0.043,-0.653,0.086
0.692,0.07,-0.814,-0.883,0.372,0.476,-0.849,0.56,0.804,0.742,0.8,0.733,0.77,-0.044,-0.66,0.085
0.693,0.065,-0.818,-0.882,0.377,0.473,-0.85,0.564,0.801,0.741,0.799,0.731,0.767,-0.047,-0.664,0.084
0.694,0.067,-0.818,-0.884,0.376,0.475,-0.851,0.566,0.797,0.738,0.797,0.728,0.762,-0.05,-0.662,0.082
0.695,0.067,-0.822,-0.888,0.378,0.477,-0.855,0.567,0.795,0.736,0.795,0.726,0.761,-0.052,-0.665,0.084
0.696,0.062,-0.827,-0.889,0.383,0.476,-0.858,0.57,0.793,0.733,0.795,0.724,0.758,-0.055,-0.669,0.082
0.697,0.054,-0.833,-0.887,0.39,0.47,-0.86,0.576,0.79,0.733,0.793,0.724,0.756,-0.058,-0.671,0.08
0.698,0.045,-0.837,-0.882,0.396,0.464,-0.86,0.579,0.788,0.732,0.791,0.72,0.754,-0.061,-0.676,0.078
0.699,0.045,-0.838,-0.883,0.397,0.465,-0.861,0.58,0.785,0.727,0.788,0.716,0.751,-0.065,-0.677,0.076
0.7,0.044,-0.839,-0.882,0.398,0.464,-0.861,0.58,0.779,0.722,0.784,0.712,0.747,-0.068,-0.673,0.077
0.701,0.038,-0.838,-0.877,0.4,0.458,-0.858,0.578,0.772,0.714,0.778,0.704,0.741,-0.07,-0.67,0.076
0.702,0.034,-0.842,-0.876,0.404,0.455,-0.859,0.578,0.765,0.708,0.771,0.7,0.734,-0.074,-0.672,0.075
0.703,0.029,-0.846,-0.875,0.409,0.452,-0.861,0.581,0.76,0.704,0.768,0.696,0.731,-0.077,-0.675,0.075
0.704,0.023,-0.852,-0.875,0.414,0.449,-0.863,0.582,0.757,0.702,0.766,0.692,0.729,-0.081,-0.678,0.077
0.705,0.02,-0.851,-0.871,0.416,0.446,-0.861,0.586,0.754,0.7,0.763,0.691,0.727,-0.084,-0.676,0.075
0.706,0.017,-0.853,-0.87,0.418,0.443,-0.861,0.589,0.749,0.696,0.759,0.689,0.723,-0.087,-0.676,0.075
0.707,0.019,-0.856,-0.875,0.418,0.447,-0.865,0.584,0.743,0.689,0.753,0.681,0.717,-0.09,-0.68,0.078
0.708,0.017,-0.858,-0.875,0.42,0.446,-0.867,0.585,0.738,0.684,0.749,0.677,0.714,-0.093,-0.682,0.079
0.709,0.007,-0.866,-0.873,0.429,0.44,-0.869,0.589,0.733,0.681,0.746,0.676,0.712,-0.097,-0.687,0.08
0.71,-0.003,-0.875,-0.873,0.44,0.435,-0.874,0.593,0.73,0.678,0.744,0.672,0.709,-0.102,-0.696,0.08
0.711,-0.009,-0.885,-0.876,0.448,0.433,-0.881,0.596,0.727,0.675,0.743,0.67,0.706,-0.105,-0.702,0.083
0.712,-0.012,-0.89,-0.878,0.452,0.432,-0.884,0.596,0.723,0.672,0.739,0.668,0.705,-0.109,-0.708,0.084
0.713,-0.017,-0.896,-0.879,0.457,0.43,-0.887,0.599,0.719,0.669,0.738,0.665,0.703,-0.111,-0.712,0.085
0.714,-0.013,-0.897,-0.884,0.456,0.435,-0.891,0.598,0.714,0.665,0.734,0.662,0.701,-0.112,-0.71,0.086
0.715,-0.015,-0.9,-0.886,0.458,0.435,-0.893,0.597,0.708,0.659,0.728,0.659,0.697,-0.116,-0.716,0.086
0.716,-0.022,-0.906,-0.884,0.465,0.431,-0.895,0.597,0.702,0.653,0.725,0.655,0.693,-0.12,-0.722,0.087
0.717,-0.028,-0.91,-0.882,0.469,0.427,-0.896,0.6,0.701,0.652,0.722,0.654,0.693,-0.12,-0.727,0.087
0.718,-0.033,-0.914,-0.882,0.474,0.424,-0.898,0.604,0.698,0.649,0.722,0.652,0.692,-0.123,-0.732,0.085
0.719,-0.031,-0.913,-0.882,0.472,0.425,-0.897,0.603,0.692,0.645,0.717,0.649,0.688,-0.126,-0.729,0.086
0.72,-0.029,-0.909,-0.88,0.469,0.425,-0.894,0.601,0.688,0.64,0.713,0.645,0.685,-0.126,-0.725,0.087
0.721,-0.027,-0.906,-0.879,0.467,0.426,-0.893,0.598,0.68,0.635,0.71,0.641,0.681,-0.128,-0.722,0.087
0.722,-0.028,-0.904,-0.877,0.466,0.424,-0.891,0.596,0.675,0.63,0.705,0.638,0.678,-0.129,-0.72,0.089
0.723,-0.031,-0.907,-0.876,0.469,0.422,-0.891,0.597,0.672,0.628,0.702,0.635,0.676,-0.132,-0.721,0.088
0.724,-0.036,-0.911,-0.875,0.474,0.418,-0.893,0.598,0.669,0.626,0.7,0.633,0.673,-0.136,-0.727,0.09
0.725,-0.038,-0.909,-0.872,0.474,0.416,-0.89,0.599,0.666,0.622,0.698,0.629,0.671,-0.136,-0.726,0.091
0.726,-0.035,-0.907,-0.872,0.472,0.418,-0.89,0.599,0.662,0.62,0.692,0.628,0.667,-0.138,-0.726,0.091
0.727,-0.03,-0.906,-0.876,0.469,0.423,-0.891,0.595,0.658,0.614,0.688,0.625,0.665,-0.139,-0.726,0.092
0.728,-0.028,-0.907,-0.88,0.468,0.425,-0.893,0.592,0.653,0.61,0.685,0.622,0.664,-0.141,-0.724,0.095
0.729,-0.035,-0.914,-0.879,0.475,0.421,-0.897,0.593,0.649,0.609,0.682,0.621,0.661,-0.143,-0.733,0.096
0.73,-0.043,-0.923,-0.88,0.483,0.418,-0.901,0.595,0.647,0.606,0.68,0.618,0.661,-0.145,-0.741,0.097
0.731,-0.049,-0.93,-0.882,0.489,0.416,-0.906,0.596,0.645,0.605,0.678,0.617,0.66,-0.147,-0.748,0.098
0.732,-0.054,-0.936,-0.882,0.495,0.414,-0.909,0.598,0.645,0.602,0.677,0.617,0.66,-0.149,-0.753,0.098
0.733,-0.058,-0.941,-0.882,0.499,0.412,-0.911,0.6,0.643,0.601,0.677,0.617,0.66,-0.151,-0.755,0.099
0.734,-0.056,-0.939,-0.883,0.497,0.413,-0.911,0.598,0.639,0.599,0.675,0.614,0.658,-0.15,-0.752,0.1
0.735,-0.053,-0.941,-0.887,0.497,0.416,-0.914,0.596,0.636,0.596,0.673,0.614,0.658,-0.151,-0.752,0.101
0.736,-0.055,-0.946,-0.89,0.501,0.417,-0.918,0.597,0.634,0.594,0.673,0.613,0.656,-0.153,-0.757,0.102
0.737,-0.06,-0.947,-0.886,0.504,0.412,-0.916,0.599,0.635,0.594,0.673,0.612,0.656,-0.153,-0.76,0.102
0.738,-0.062,-0.946,-0.883,0.504,0.41,-0.914,0.6,0.635,0.594,0.673,0.613,0.657,-0.152,-0.757,0.102
0.739,-0.059,-0.944,-0.885,0.501,0.413,-0.914,0.598,0.632,0.591,0.671,0.613,0.658,-0.151,-0.755,0.102
0.74,-0.058,-0.941,-0.883,0.499,0.413,-0.912,0.597,0.63,0.589,0.669,0.611,0.656,-0.152,-0.753,0.101
0.741,-0.054,-0.936,-0.881,0.495,0.413,-0.908,0.595,0.628,0.586,0.666,0.608,0.652,-0.152,-0.748,0.101
0.742,-0.054,-0.935,-0.881,0.495,0.413,-0.908,0.592,0.624,0.583,0.661,0.604,0.649,-0.153,-0.747,0.103
0.743,-0.059,-0.939,-0.88,0.499,0.41,-0.909,0.591,0.621,0.58,0.659,0.603,0.649,-0.154,-0.748,0.103
0.744,-0.062,-0.943,-0.88,0.502,0.408,-0.911,0.592,0.62,0.579,0.659,0.602,0.647,-0.154,-0.749,0.103
0.745,-0.064,-0.939,-0.875,0.501,0.406,-0.907,0.592,0.619,0.579,0.658,0.601,0.647,-0.156,-0.745,0.102
0.746,-0.062,-0.935,-0.874,0.499,0.406,-0.904,0.592,0.62,0.577,0.658,0.601,0.648,-0.155,-0.745,0.103
0.747,-0.056,-0.935,-0.879,0.496,0.411,-0.907,0.588,0.617,0.575,0.656,0.597,0.645,-0.155,-0.744,0.104
0.748,-0.054,-0.934,-0.879,0.494,0.412,-0.907,0.586,0.614,0.573,0.653,0.595,0.644,-0.157,-0.743,0.105
0.749,-0.062,-0.941,-0.878,0.501,0.407,-0.909,0.587,0.613,0.573,0.654,0.595,0.644,-0.156,-0.746,0.107
0.75,-0.065,-0.944,-0.879,0.504,0.407,-0.911,0.589,0.612,0.572,0.653,0.595,0.643,-0.158,-0.749,0.108
0.751,-0.068,-0.949,-0.88,0.508,0.406,-0.914,0.59,0.614,0.573,0.654,0.596,0.646,-0.158,-0.754,0.11
0.752,-0.072,-0.953,-0.88,0.512,0.404,-0.916,0.592,0.614,0.574,0.655,0.597,0.646,-0.158,-0.758,0.11
0.753,-0.075,-0.954,-0.879,0.514,0.402,-0.916,0.594,0.614,0.576,0.656,0.599,0.646,-0.159,-0.76,0.111
0.754,-0.072,-0.954,-0.881,0.513,0.404,-0.917,0.593,0.613,0.576,0.655,0.598,0.646,-0.16,-0.758,0.109
0.755,-0.07,-0.955,-0.885,0.512,0.407,-0.919,0.592,0.613,0.572,0.653,0.597,0.645,-0.16,-0.757,0.108
0.756,-0.07,-0.957,-0.887,0.513,0.408,-0.921,0.59,0.613,0.573,0.655,0.598,0.646,-0.159,-0.761,0.111
0.757,-0.07,-0.956,-0.885,0.513,0.407,-0.92,0.593,0.614,0.576,0.658,0.599,0.647,-0.161,-0.761,0.108
0.758,-0.072,-0.954,-0.881,0.513,0.404,-0.917,0.595,0.617,0.576,0.657,0.6,0.646,-0.161,-0.759,0.108
0.759,-0.069,-0.951,-0.881,0.51,0.406,-0.916,0.592,0.611,0.574,0.655,0.598,0.643,-0.161,-0.755,0.108
0.76,-0.065,-0.945,-0.881,0.505,0.408,-0.913,0.592,0.61,0.572,0.654,0.596,0.642,-0.162,-0.754,0.106
0.761,-0.059,-0.936,-0.878,0.498,0.409,-0.907,0.591,0.609,0.57,0.653,0.596,0.642,-0.159,-0.748,0.108
0.762,-0.053,-0.931,-0.877,0.492,0.411,-0.904,0.591,0.605,0.569,0.653,0.596,0.642,-0.159,-0.743,0.107
0.763,-0.052,-0.928,-0.875,0.491,0.411,-0.902,0.591,0.607,0.57,0.653,0.597,0.642,-0.16,-0.744,0.106
0.764,-0.056,-0.928,-0.873,0.492,0.408,-0.9,0.594,0.609,0.572,0.653,0.597,0.643,-0.161,-0.748,0.107
0.765,-0.056,-0.927,-0.872,0.491,0.408,-0.9,0.595,0.608,0.571,0.654,0.597,0.644,-0.159,-0.747,0.107
0.766,-0.054,-0.924,-0.87,0.489,0.407,-0.897,0.593,0.609,0.572,0.655,0.596,0.643,-0.16,-0.744,0.106
0.767,-0.05,-0.922,-0.872,0.485,0.411,-0.897,0.591,0.607,0.57,0.653,0.595,0.643,-0.16,-0.744,0.107
0.768,-0.048,-0.921,-0.873,0.484,0.412,-0.897,0.588,0.605,0.571,0.653,0.596,0.643,-0.159,-0.745,0.109
0.769,-0.05,-0.924,-0.874,0.487,0.411,-0.899,0.589,0.605,0.572,0.654,0.595,0.642,-0.162,-0.747,0.109
0.77,-0.047,-0.928,-0.881,0.488,0.417,-0.905,0.59,0.605,0.572,0.653,0.594,0.643,-0.16,-0.749,0.11
0.771,-0.052,-0.933,-0.88,0.493,0.413,-0.907,0.591,0.607,0.575,0.656,0.597,0.645,-0.16,-0.753,0.111
0.772,-0.057,-0.938,-0.88,0.497,0.411,-0.909,0.594,0.607,0.575,0.658,0.598,0.646,-0.161,-0.757,0.108
0.773,-0.059,-0.938,-0.878,0.499,0.409,-0.908,0.595,0.607,0.577,0.658,0.598,0.647,-0.163,-0.758,0.109
0.774,-0.058,-0.939,-0.881,0.498,0.411,-0.91,0.593,0.608,0.579,0.66,0.6,0.647,-0.161,-0.757,0.108
0.775,-0.054,-0.939,-0.884,0.497,0.414,-0.911,0.589,0.606,0.578,0.659,0.599,0.648,-0.159,-0.756,0.108
0.776,-0.058,-0.942,-0.884,0.499,0.413,-0.913,0.589,0.607,0.578,0.658,0.598,0.647,-0.16,-0.759,0.11
0.777,-0.059,-0.941,-0.882,0.5,0.412,-0.912,0.59,0.609,0.58,0.661,0.6,0.648,-0.159,-0.758,0.108
0.778,-0.059,-0.94,-0.88,0.5,0.41,-0.91,0.593,0.611,0.583,0.663,0.601,0.65,-0.158,-0.756,0.106
0.779,-0.058,-0.939,-0.88,0.498,0.411,-0.909,0.591,0.612,0.582,0.661,0.601,0.649,-0.156,-0.751,0.106
0.78,-0.057,-0.935,-0.877,0.496,0.41,-0.906,0.59,0.612,0.581,0.661,0.6,0.648,-0.157,-0.749,0.106
0.781,-0.053,-0.929,-0.875,0.492,0.411,-0.902,0.587,0.609,0.578,0.661,0.599,0.647,-0.157,-0.745,0.104
0.782,-0.049,-0.923,-0.874,0.486,0.412,-0.898,0.584,0.608,0.577,0.66,0.598,0.646,-0.155,-0.742,0.104
0.783,-0.045,-0.92,-0.875,0.482,0.415,-0.898,0.586,0.609,0.579,0.66,0.599,0.646,-0.155,-0.742,0.102
0.784,-0.046,-0.918,-0.872,0.482,0.412,-0.895,0.588,0.609,0.58,0.661,0.599,0.647,-0.157,-0.74,0.104
0.785,-0.051,-0.918,-0.868,0.484,0.408,-0.893,0.587,0.611,0.582,0.663,0.598,0.645,-0.157,-0.739,0.104
0.786,-0.053,-0.922,-0.869,0.488,0.407,-0.895,0.586,0.61,0.58,0.66,0.599,0.645,-0.157,-0.74,0.102
0.787,-0.049,-0.921,-0.872,0.485,0.411,-0.896,0.583,0.608,0.579,0.659,0.596,0.643,-0.157,-0.736,0.102
0.788,-0.043,-0.917,-0.875,0.48,0.415,-0.896,0.582,0.608,0.579,0.659,0.596,0.643,-0.157,-0.732,0.102
0.789,-0.046,-0.922,-0.875,0.484,0.414,-0.898,0.584,0.611,0.581,0.659,0.597,0.646,-0.157,-0.739,0.104
0.79,-0.051,-0.925,-0.875,0.488,0.412,-0.9,0.585,0.613,0.583,0.662,0.598,0.647,-0.158,-0.745,0.104
0.791,-0.054,-0.93,-0.876,0.492,0.41,-0.903,0.587,0.615,0.584,0.664,0.601,0.648,-0.157,-0.748,0.104
0.792,-0.054,-0.933,-0.879,0.494,0.412,-0.906,0.59,0.617,0.586,0.668,0.604,0.649,-0.156,-0.75,0.104
0.793,-0.058,-0.935,-0.878,0.496,0.41,-0.906,0.591,0.618,0.585,0.668,0.605,0.651,-0.156,-0.75,0.105
0.794,-0.058,-0.936,-0.879,0.497,0.41,-0.908,0.591,0.617,0.584,0.667,0.605,0.65,-0.154,-0.75,0.104
0.795,-0.053,-0.936,-0.882,0.495,0.414,-0.909,0.589,0.615,0.584,0.667,0.604,0.651,-0.152,-0.749,0.105
0.796,-0.054,-0.938,-0.884,0.496,0.414,-0.911,0.586,0.615,0.584,0.666,0.604,0.651,-0.153,-0.75,0.108
0.797,-0.056,-0.938,-0.882,0.497,0.413,-0.91,0.59,0.618,0.588,0.67,0.607,0.652,-0.152,-0.752,0.106
0.798,-0.056,-0.936,-0.88,0.496,0.412,-0.908,0.596,0.622,0.591,0.672,0.609,0.655,-0.151,-0.753,0.103
0.799,-0.054,-0.934,-0.88,0.494,0.413,-0.907,0.595,0.622,0.591,0.672,0.609,0.656,-0.151,-0.751,0.102
0.8,-0.052,-0.931,-0.879,0.492,0.413,-0.905,0.591,0.619,0.59,0.67,0.608,0.654,-0.151,-0.75,0.102
0.801,-0.044,-0.923,-0.879,0.484,0.417,-0.901,0.588,0.617,0.588,0.667,0.606,0.65,-0.15,-0.743,0.101
0.802,-0.039,-0.918,-0.879,0.478,0.419,-0.898,0.585,0.616,0.587,0.668,0.606,0.649,-0.15,-0.737,0.102
0.803,-0.037,-0.917,-0.88,0.477,0.421,-0.898,0.584,0.616,0.587,0.667,0.606,0.648,-0.15,-0.737,0.101
0.804,-0.042,-0.92,-0.878,0.481,0.418,-0.899,0.583,0.617,0.587,0.667,0.605,0.647,-0.152,-0.738,0.1
0.805,-0.047,-0.92,-0.874,0.484,0.413,-0.897,0.585,0.617,0.588,0.667,0.605,0.647,-0.153,-0.739,0.099
0.806,-0.046,-0.918,-0.872,0.482,0.412,-0.895,0.586,0.617,0.589,0.668,0.604,0.647,-0.155,-0.738,0.097
0.807,-0.043,-0.917,-0.874,0.48,0.415,-0.895,0.583,0.615,0.588,0.667,0.602,0.643,-0.155,-0.737,0.098
0.808,-0.041,-0.917,-0.876,0.479,0.417,-0.896,0.582,0.614,0.587,0.666,0.601,0.643,-0.154,-0.733,0.1
0.809,-0.046,-0.92,-0.873,0.483,0.413,-0.896,0.585,0.617,0.59,0.67,0.603,0.646,-0.153,-0.738,0.101
0.81,-0.052,-0.926,-0.874,0.489,0.411,-0.9,0.586,0.618,0.59,0.671,0.606,0.648,-0.153,-0.747,0.101
0.811,-0.054,-0.931,-0.876,0.493,0.41,-0.904,0.589,0.62,0.589,0.674,0.605,0.649,-0.155,-0.748,0.1
0.812,-0.057,-0.934,-0.877,0.496,0.41,-0.906,0.593,0.623,0.592,0.676,0.609,0.651,-0.153,-0.751,0.101
0.813,-0.056,-0.935,-0.879,0.495,0.411,-0.907,0.593,0.622,0.595,0.676,0.609,0.653,-0.152,-0.75,0.102
0.814,-0.055,-0.935,-0.88,0.495,0.412,-0.908,0.591,0.623,0.594,0.678,0.611,0.653,-0.15,-0.749,0.101
0.815,-0.054,-0.939,-0.885,0.496,0.415,-0.912,0.59,0.624,0.592,0.677,0.613,0.654,-0.15,-0.751,0.101
0.816,-0.054,-0.94,-0.885,0.497,0.415,-0.912,0.591,0.624,0.593,0.678,0.61,0.653,-0.15,-0.749,0.102
0.817,-0.055,-0.939,-0.883,0.497,0.414,-0.911,0.593,0.627,0.597,0.68,0.613,0.655,-0.149,-0.752,0.101
0.818,-0.053,-0.936,-0.882,0.495,0.414,-0.909,0.595,0.628,0.599,0.682,0.614,0.657,-0.149,-0.751,0.099
0.819,-0.05,-0.934,-0.884,0.492,0.417,-0.909,0.594,0.625,0.599,0.682,0.614,0.657,-0.147,-0.748,0.1
0.82,-0.046,-0.929,-0.883,0.488,0.418,-0.906,0.592,0.625,0.599,0.68,0.613,0.656,-0.146,-0.745,0.101
0.821,-0.043,-0.921,-0.878,0.482,0.417,-0.899,0.59,0.625,0.6,0.681,0.612,0.656,-0.145,-0.74,0.099
0.822,-0.041,-0.917,-0.876,0.479,0.417,-0.896,0.589,0.624,0.598,0.681,0.612,0.655,-0.145,-0.736,0.097
0.823,-0.041,-0.913,-0.873,0.477,0.416,-0.893,0.589,0.625,0.599,0.683,0.613,0.655,-0.144,-0.732,0.096
0.824,-0.043,-0.915,-0.873,0.479,0.415,-0.894,0.59,0.625,0.6,0.683,0.614,0.656,-0.144,-0.736,0.097
0.825,-0.044,-0.916,-0.872,0.48,0.413,-0.894,0.59,0.625,0.6,0.683,0.612,0.655,-0.145,-0.734,0.096
0.826,-0.042,-0.913,-0.871,0.478,0.414,-0.892,0.592,0.626,0.601,0.684,0.613,0.655,-0.145,-0.73,0.094
0.827,-0.037,-0.911,-0.874,0.474,0.418,-0.892,0.589,0.626,0.598,0.683,0.613,0.654,-0.143,-0.729,0.095
0.828,-0.03,-0.907,-0.877,0.469,0.423,-0.892,0.587,0.625,0.6,0.683,0.614,0.654,-0.142,-0.728,0.095
0.829,-0.034,-0.908,-0.874,0.471,0.419,-0.891,0.588,0.628,0.603,0.686,0.615,0.655,-0.144,-0.731,0.095
0.83,-0.043,-0.913,-0.871,0.478,0.413,-0.892,0.591,0.632,0.605,0.69,0.617,0.657,-0.146,-0.733,0.093
0.831,-0.044,-0.914,-0.871,0.479,0.413,-0.892,0.594,0.635,0.609,0.692,0.62,0.66,-0.146,-0.735,0.092
0.832,-0.043,-0.914,-0.872,0.478,0.414,-0.893,0.594,0.637,0.612,0.695,0.622,0.663,-0.145,-0.735,0.094
0.833,-0.042,-0.913,-0.873,0.477,0.415,-0.893,0.595,0.638,0.614,0.697,0.625,0.665,-0.145,-0.736,0.092
0.834,-0.04,-0.911,-0.871,0.475,0.415,-0.891,0.593,0.638,0.613,0.695,0.623,0.666,-0.146,-0.735,0.091
0.835,-0.037,-0.911,-0.874,0.474,0.418,-0.892,0.589,0.636,0.612,0.696,0.624,0.666,-0.144,-0.732,0.093
0.836,-0.036,-0.91,-0.875,0.473,0.419,-0.892,0.589,0.637,0.613,0.698,0.625,0.668,-0.143,-0.729,0.095
0.837,-0.038,-0.908,-0.87,0.473,0.416,-0.889,0.593,0.641,0.616,0.7,0.628,0.671,-0.144,-0.727,0.092
0.838,-0.042,-0.906,-0.865,0.474,0.411,-0.886,0.599,0.647,0.622,0.703,0.631,0.674,-0.143,-0.728,0.088
0.839,-0.037,-0.9,-0.863,0.469,0.412,-0.881,0.598,0.648,0.623,0.704,0.631,0.673,-0.141,-0.72,0.087
0.84,-0.03,-0.892,-0.862,0.462,0.415,-0.876,0.6,0.651,0.625,0.708,0.633,0.675,-0.139,-0.713,0.085
0.841,-0.024,-0.881,-0.858,0.453,0.416,-0.87,0.601,0.655,0.627,0.71,0.634,0.676,-0.137,-0.705,0.081
0.842,-0.016,-0.872,-0.856,0.444,0.419,-0.864,0.6,0.657,0.63,0.713,0.637,0.677,-0.136,-0.697,0.079
0.843,-0.009,-0.865,-0.856,0.437,0.423,-0.86,0.602,0.661,0.635,0.717,0.64,0.681,-0.134,-0.693,0.08
0.844,-0.007,-0.86,-0.852,0.433,0.422,-0.856,0.601,0.664,0.639,0.72,0.643,0.683,-0.132,-0.691,0.08
0.845,-0.004,-0.852,-0.848,0.428,0.421,-0.85,0.603,0.668,0.643,0.724,0.646,0.686,-0.131,-0.687,0.078
0.846,0.001,-0.844,-0.845,0.422,0.423,-0.845,0.603,0.672,0.646,0.726,0.648,0.688,-0.129,-0.679,0.075
0.847,0.006,-0.84,-0.847,0.417,0.426,-0.844,0.6,0.673,0.648,0.728,0.65,0.69,-0.125,-0.673,0.074
0.848,0.013,-0.836,-0.85,0.411,0.431,-0.843,0.597,0.675,0.65,0.73,0.65,0.692,-0.122,-0.671,0.073
0.849,0.015,-0.835,-0.849,0.41,0.431,-0.842,0.597,0.677,0.654,0.733,0.652,0.694,-0.122,-0.671,0.074
0.85,0.014,-0.836,-0.85,0.411,0.431,-0.843,0.597,0.68,0.657,0.736,0.656,0.698,-0.122,-0.67,0.075
0.851,0.013,-0.839,-0.851,0.413,0.431,-0.845,0.596,0.681,0.657,0.736,0.657,0.699,-0.123,-0.672,0.077
0.852,0.009,-0.842,-0.851,0.416,0.429,-0.846,0.598,0.681,0.658,0.737,0.659,0.7,-0.124,-0.672,0.078
0.853,0.005,-0.841,-0.846,0.418,0.425,-0.844,0.598,0.681,0.66,0.739,0.66,0.699,-0.127,-0.671,0.075
0.854,0.004,-0.838,-0.843,0.417,0.423,-0.841,0.599,0.683,0.661,0.74,0.661,0.701,-0.128,-0.666,0.075
0.855,0.006,-0.842,-0.848,0.418,0.427,-0.845,0.599,0.684,0.66,0.74,0.66,0.701,-0.128,-0.666,0.074
0.856,0.011,-0.846,-0.857,0.417,0.433,-0.851,0.595,0.685,0.66,0.739,0.659,0.698,-0.126,-0.672,0.073
0.857,0.01,-0.848,-0.858,0.419,0.434,-0.853,0.602,0.692,0.664,0.743,0.662,0.7,-0.122,-0.679,0.071
0.858,0.003,-0.852,-0.855,0.424,0.428,-0.853,0.608,0.698,0.668,0.746,0.662,0.701,-0.123,-0.684,0.068
0.859,0.006,-0.848,-0.854,0.421,0.429,-0.851,0.608,0.698,0.667,0.746,0.663,0.701,-0.122,-0.679,0.066
0.86,0.011,-0.84,-0.851,0.414,0.43,-0.845,0.608,0.7,0.667,0.746,0.663,0.7,-0.121,-0.672,0.062
0.861,0.014,-0.828,-0.841,0.407,0.427,-0.835,0.605,0.699,0.666,0.745,0.662,0.7,-0.122,-0.66,0.061
0.862,0.018,-0.817,-0.835,0.4,0.425,-0.826,0.602,0.699,0.668,0.745,0.663,0.703,-0.122,-0.652,0.061
0.863,0.024,-0.81,-0.834,0.394,0.428,-0.823,0.595,0.7,0.671,0.748,0.666,0.705,-0.121,-0.648,0.063
0.864,0.026,-0.805,-0.832,0.39,0.428,-0.819,0.59,0.699,0.671,0.75,0.667,0.706,-0.121,-0.646,0.064
0.865,0.026,-0.799,-0.826,0.387,0.426,-0.813,0.59,0.701,0.674,0.751,0.668,0.708,-0.122,-0.641,0.063
0.866,0.029,-0.791,-0.819,0.382,0.423,-0.805,0.588,0.701,0.674,0.751,0.672,0.71,-0.122,-0.629,0.061
0.867,0.032,-0.786,-0.818,0.378,0.424,-0.802,0.583,0.697,0.672,0.75,0.67,0.71,-0.121,-0.624,0.06
0.868,0.034,-0.783,-0.817,0.374,0.425,-0.8,0.579,0.696,0.671,0.748,0.67,0.71,-0.122,-0.618,0.062
0.869,0.028,-0.783,-0.811,0.378,0.419,-0.797,0.579,0.696,0.67,0.749,0.672,0.711,-0.123,-0.614,0.062
0.87,0.022,-0.784,-0.807,0.381,0.414,-0.795,0.577,0.695,0.67,0.75,0.674,0.714,-0.125,-0.613,0.064
0.871,0.021,-0.785,-0.807,0.383,0.414,-0.796,0.573,0.694,0.67,0.753,0.676,0.716,-0.127,-0.614,0.067
0.872,0.018,-0.787,-0.806,0.385,0.412,-0.796,0.567,0.688,0.668,0.752,0.678,0.719,-0.127,-0.615,0.069
0.873,0.015,-0.787,-0.802,0.386,0.409,-0.794,0.553,0.675,0.662,0.748,0.677,0.72,-0.127,-0.613,0.074
0.874,0.016,-0.787,-0.803,0.386,0.409,-0.795,0.54,0.657,0.652,0.741,0.673,0.717,-0.128,-0.616,0.08
0.875,0.014,-0.79,-0.804,0.389,0.409,-0.797,0.529,0.64,0.641,0.732,0.668,0.714,-0.132,-0.619,0.086
0.876,0.015,-0.795,-0.809,0.391,0.412,-0.802,0.517,0.623,0.629,0.727,0.665,0.713,-0.134,-0.623,0.093
0.877,0.011,-0.799,-0.811,0.395,0.41,-0.805,0.51,0.611,0.622,0.721,0.664,0.713,-0.133,-0.632,0.097
0.878,0.01,-0.806,-0.816,0.399,0.412,-0.811,0.508,0.605,0.616,0.718,0.661,0.711,-0.132,-0.641,0.1
0.879,0.017,-0.807,-0.825,0.396,0.42,-0.816,0.503,0.597,0.611,0.714,0.661,0.71,-0.126,-0.644,0.105
0.88,0.024,-0.807,-0.831,0.393,0.427,-0.819,0.499,0.59,0.605,0.71,0.658,0.708,-0.123,-0.646,0.108
0.881,0.03,-0.804,-0.835,0.388,0.432,-0.82,0.496,0.587,0.6,0.708,0.656,0.706,-0.121,-0.644,0.111
0.882,0.035,-0.795,-0.831,0.381,0.432,-0.813,0.495,0.589,0.602,0.707,0.656,0.705,-0.121,-0.636,0.108
0.883,0.04,-0.787,-0.827,0.374,0.433,-0.807,0.496,0.59,0.603,0.708,0.657,0.707,-0.12,-0.629,0.106
0.884,0.039,-0.783,-0.823,0.372,0.43,-0.803,0.496,0.591,0.605,0.709,0.66,0.711,-0.119,-0.626,0.107
0.885,0.039,-0.775,-0.814,0.368,0.426,-0.794,0.499,0.596,0.61,0.712,0.663,0.712,-0.12,-0.619,0.104
0.886,0.042,-0.765,-0.807,0.361,0.424,-0.786,0.5,0.602,0.617,0.72,0.669,0.718,-0.116,-0.607,0.1
0.887,0.045,-0.756,-0.801,0.356,0.423,-0.779,0.5,0.606,0.622,0.723,0.671,0.72,-0.115,-0.595,0.098
0.888,0.047,-0.749,-0.796,0.351,0.421,-0.772,0.503,0.612,0.625,0.726,0.674,0.723,-0.114,-0.584,0.096
0.889,0.044,-0.754,-0.797,0.355,0.42,-0.775,0.508,0.615,0.628,0.727,0.675,0.724,-0.113,-0.588,0.096
0.89,0.04,-0.762,-0.801,0.361,0.42,-0.781,0.511,0.616,0.626,0.724,0.675,0.722,-0.116,-0.595,0.096
0.891,0.04,-0.766,-0.806,0.363,0.423,-0.786,0.511,0.615,0.625,0.723,0.674,0.722,-0.115,-0.599,0.098
0.892,0.041,-0.771,-0.812,0.366,0.426,-0.792,0.511,0.612,0.625,0.723,0.673,0.723,-0.115,-0.606,0.101
0.893,0.038,-0.776,-0.815,0.369,0.426,-0.795,0.508,0.608,0.619,0.719,0.671,0.722,-0.117,-0.616,0.104
0.894,0.042,-0.775,-0.817,0.367,0.429,-0.796,0.507,0.602,0.615,0.716,0.669,0.721,-0.117,-0.618,0.105
0.895,0.042,-0.775,-0.818,0.367,0.429,-0.796,0.505,0.597,0.613,0.715,0.668,0.722,-0.117,-0.615,0.106
0.896,0.042,-0.779,-0.821,0.369,0.431,-0.8,0.501,0.591,0.606,0.71,0.665,0.721,-0.117,-0.619,0.11
0.897,0.041,-0.781,-0.823,0.37,0.431,-0.802,0.504,0.591,0.605,0.71,0.666,0.722,-0.117,-0.622,0.111
0.898,0.038,-0.783,-0.822,0.373,0.43,-0.802,0.504,0.594,0.608,0.712,0.669,0.725,-0.114,-0.624,0.112
0.899,0.04,-0.783,-0.824,0.372,0.431,-0.803,0.497,0.588,0.602,0.705,0.666,0.722,-0.113,-0.624,0.113
0.9,0.045,-0.784,-0.83,0.369,0.437,-0.806,0.493,0.585,0.598,0.703,0.661,0.72,-0.112,-0.626,0.116
0.901,0.055,-0.781,-0.837,0.363,0.445,-0.809,0.494,0.587,0.598,0.703,0.662,0.719,-0.107,-0.627,0.117
0.902,0.06,-0.784,-0.846,0.362,0.453,-0.815,0.492,0.586,0.596,0.7,0.658,0.716,-0.102,-0.635,0.118
0.903,0.063,-0.791,-0.855,0.364,0.459,-0.823,0.492,0.586,0.593,0.699,0.654,0.713,-0.101,-0.645,0.118
0.904,0.062,-0.796,-0.86,0.367,0.461,-0.828,0.496,0.588,0.594,0.7,0.657,0.713,-0.099,-0.651,0.118
0.905,0.062,-0.8,-0.862,0.369,0.462,-0.831,0.496,0.59,0.595,0.7,0.659,0.715,-0.096,-0.653,0.121
0.906,0.061,-0.797,-0.859,0.368,0.46,-0.828,0.496,0.587,0.593,0.699,0.658,0.714,-0.093,-0.652,0.121
0.907,0.063,-0.799,-0.862,0.368,0.462,-0.831,0.493,0.581,0.588,0.694,0.654,0.71,-0.095,-0.653,0.123
0.908,0.064,-0.802,-0.866,0.369,0.465,-0.835,0.492,0.575,0.582,0.688,0.65,0.706,-0.097,-0.653,0.127
0.909,0.058,-0.806,-0.865,0.374,0.461,-0.836,0.494,0.571,0.579,0.683,0.647,0.706,-0.099,-0.655,0.129
0.91,0.053,-0.817,-0.87,0.382,0.461,-0.843,0.495,0.568,0.576,0.681,0.645,0.705,-0.101,-0.662,0.131
0.911,0.045,-0.825,-0.871,0.39,0.458,-0.848,0.498,0.565,0.573,0.68,0.643,0.704,-0.105,-0.667,0.13
0.912,0.038,-0.831,-0.869,0.397,0.454,-0.85,0.502,0.565,0.574,0.68,0.643,0.703,-0.107,-0.672,0.129
0.913,0.035,-0.838,-0.872,0.402,0.453,-0.855,0.506,0.568,0.574,0.68,0.641,0.703,-0.11,-0.678,0.127
0.914,0.031,-0.841,-0.872,0.405,0.451,-0.856,0.509,0.568,0.574,0.679,0.64,0.7,-0.112,-0.679,0.124
0.915,0.021,-0.85,-0.872,0.414,0.446,-0.861,0.518,0.574,0.576,0.678,0.639,0.696,-0.117,-0.684,0.119
0.916,0.005,-0.868,-0.873,0.431,0.439,-0.87,0.528,0.583,0.578,0.678,0.635,0.691,-0.122,-0.698,0.116
0.917,-0.014,-0.879,-0.866,0.447,0.425,-0.873,0.542,0.588,0.581,0.679,0.631,0.685,-0.131,-0.704,0.11
0.918,-0.029,-0.888,-0.859,0.459,0.414,-0.874,0.554,0.592,0.582,0.678,0.628,0.681,-0.139,-0.711,0.106
0.919,-0.035,-0.893,-0.859,0.464,0.412,-0.876,0.557,0.59,0.58,0.674,0.625,0.677,-0.142,-0.714,0.105
0.92,-0.036,-0.893,-0.857,0.465,0.41,-0.875,0.558,0.59,0.579,0.672,0.624,0.675,-0.143,-0.707,0.104
0.921,-0.035,-0.89,-0.855,0.463,0.41,-0.873,0.557,0.589,0.576,0.67,0.621,0.671,-0.143,-0.702,0.104
0.922,-0.032,-0.889,-0.857,0.461,0.412,-0.873,0.555,0.582,0.569,0.663,0.615,0.666,-0.145,-0.704,0.106
0.923,-0.033,-0.894,-0.862,0.464,0.414,-0.878,0.553,0.578,0.563,0.657,0.61,0.661,-0.146,-0.71,0.11
0.924,-0.039,-0.905,-0.866,0.472,0.413,-0.886,0.554,0.576,0.558,0.652,0.603,0.654,-0.149,-0.722,0.11
0.925,-0.048,-0.911,-0.864,0.479,0.408,-0.887,0.555,0.574,0.554,0.648,0.599,0.65,-0.153,-0.726,0.112
0.926,-0.05,-0.912,-0.862,0.481,0.406,-0.887,0.555,0.573,0.554,0.647,0.597,0.646,-0.157,-0.726,0.11
0.927,-0.049,-0.915,-0.867,0.482,0.408,-0.891,0.556,0.571,0.551,0.642,0.593,0.642,-0.157,-0.728,0.109
0.928,-0.049,-0.918,-0.869,0.483,0.41,-0.893,0.553,0.566,0.544,0.638,0.587,0.638,-0.161,-0.728,0.111
0.929,-0.053,-0.923,-0.87,0.488,0.408,-0.896,0.556,0.565,0.543,0.635,0.582,0.634,-0.166,-0.732,0.114
0.93,-0.057,-0.928,-0.871,0.492,0.406,-0.899,0.559,0.568,0.545,0.636,0.582,0.634,-0.166,-0.739,0.115
0.931,-0.06,-0.935,-0.875,0.498,0.406,-0.905,0.56,0.57,0.547,0.64,0.585,0.636,-0.167,-0.747,0.113
0.932,-0.061,-0.941,-0.88,0.501,0.409,-0.91,0.561,0.57,0.547,0.639,0.585,0.637,-0.167,-0.75,0.115
0.933,-0.063,-0.944,-0.88,0.503,0.408,-0.912,0.563,0.568,0.546,0.639,0.584,0.636,-0.167,-0.753,0.115
0.934,-0.064,-0.946,-0.882,0.505,0.409,-0.914,0.564,0.568,0.545,0.637,0.584,0.634,-0.167,-0.754,0.113
0.935,-0.065,-0.949,-0.883,0.507,0.409,-0.916,0.565,0.568,0.543,0.636,0.583,0.633,-0.167,-0.754,0.113
0.936,-0.068,-0.955,-0.887,0.511,0.409,-0.921,0.566,0.568,0.543,0.638,0.582,0.633,-0.168,-0.76,0.115
0.937,-0.067,-0.955,-0.888,0.511,0.41,-0.921,0.568,0.568,0.542,0.638,0.582,0.634,-0.168,-0.762,0.115
0.938,-0.068,-0.955,-0.886,0.511,0.409,-0.92,0.572,0.57,0.543,0.639,0.584,0.636,-0.168,-0.766,0.115
0.939,-0.069,-0.957,-0.888,0.512,0.409,-0.922,0.569,0.569,0.541,0.637,0.582,0.633,-0.166,-0.766,0.114
0.94,-0.066,-0.954,-0.887,0.51,0.41,-0.92,0.565,0.565,0.538,0.634,0.578,0.628,-0.167,-0.763,0.114
0.941,-0.057,-0.947,-0.89,0.502,0.416,-0.918,0.563,0.565,0.536,0.633,0.577,0.629,-0.167,-0.757,0.115
0.942,-0.054,-0.942,-0.887,0.499,0.416,-0.915,0.563,0.563,0.535,0.631,0.575,0.626,-0.167,-0.751,0.115
0.943,-0.06,-0.945,-0.885,0.502,0.412,-0.915,0.564,0.563,0.532,0.628,0.574,0.625,-0.168,-0.755,0.115
0.944,-0.064,-0.95,-0.886,0.506,0.411,-0.918,0.566,0.564,0.531,0.628,0.574,0.625,-0.168,-0.76,0.117
0.945,-0.067,-0.95,-0.883,0.508,0.408,-0.916,0.567,0.563,0.531,0.627,0.572,0.624,-0.17,-0.764,0.116
0.946,-0.07,-0.949,-0.878,0.509,0.404,-0.913,0.567,0.562,0.531,0.626,0.571,0.624,-0.168,-0.764,0.114
0.947,-0.07,-0.954,-0.884,0.512,0.406,-0.918,0.566,0.56,0.529,0.626,0.57,0.621,-0.169,-0.766,0.114
0.948,-0.068,-0.956,-0.888,0.512,0.41,-0.922,0.565,0.558,0.528,0.623,0.569,0.619,-0.168,-0.765,0.115
0.949,-0.072,-0.958,-0.885,0.515,0.406,-0.921,0.568,0.56,0.528,0.624,0.569,0.621,-0.168,-0.764,0.116
0.95,-0.076,-0.962,-0.885,0.519,0.405,-0.924,0.571,0.561,0.53,0.626,0.569,0.62,-0.171,-0.765,0.116
0.951,-0.08,-0.969,-0.889,0.524,0.405,-0.929,0.574,0.563,0.532,0.626,0.571,0.62,-0.172,-0.771,0.117
0.952,-0.082,-0.975,-0.892,0.528,0.405,-0.933,0.577,0.566,0.532,0.626,0.573,0.621,-0.171,-0.778,0.117
0.953,-0.084,-0.978,-0.894,0.53,0.405,-0.936,0.578,0.567,0.534,0.627,0.572,0.623,-0.171,-0.779,0.117
0.954,-0.083,-0.979,-0.896,0.531,0.407,-0.938,0.578,0.568,0.535,0.627,0.572,0.622,-0.172,-0.78,0.116
0.955,-0.082,-0.981,-0.898,0.531,0.408,-0.94,0.578,0.567,0.534,0.626,0.571,0.621,-0.172,-0.782,0.116
0.956,-0.087,-0.986,-0.898,0.537,0.405,-0.942,0.578,0.568,0.533,0.625,0.57,0.621,-0.173,-0.786,0.116
0.957,-0.09,-0.989,-0.898,0.54,0.404,-0.944,0.58,0.57,0.534,0.626,0.571,0.622,-0.172,-0.789,0.115
0.958,-0.092,-0.99,-0.897,0.541,0.402,-0.944,0.584,0.571,0.536,0.626,0.572,0.623,-0.172,-0.79,0.114
0.959,-0.09,-0.987,-0.896,0.538,0.404,-0.942,0.584,0.572,0.534,0.627,0.572,0.621,-0.173,-0.788,0.111
0.96,-0.088,-0.984,-0.895,0.536,0.404,-0.94,0.581,0.571,0.534,0.626,0.571,0.62,-0.173,-0.784,0.111
0.961,-0.084,-0.977,-0.893,0.53,0.405,-0.935,0.58,0.569,0.533,0.625,0.57,0.619,-0.172,-0.778,0.111
0.962,-0.078,-0.971,-0.892,0.524,0.407,-0.932,0.577,0.568,0.533,0.624,0.567,0.619,-0.172,-0.774,0.11
0.963,-0.078,-0.97,-0.891,0.524,0.406,-0.93,0.579,0.57,0.533,0.624,0.568,0.618,-0.172,-0.773,0.11
0.964,-0.081,-0.97,-0.888,0.526,0.404,-0.929,0.58,0.571,0.533,0.624,0.568,0.617,-0.173,-0.774,0.109
0.965,-0.086,-0.969,-0.884,0.527,0.399,-0.926,0.579,0.57,0.532,0.625,0.568,0.617,-0.173,-0.775,0.109
0.966,-0.083,-0.967,-0.884,0.525,0.401,-0.925,0.582,0.571,0.532,0.624,0.567,0.618,-0.171,-0.775,0.107
0.967,-0.074,-0.966,-0.892,0.52,0.408,-0.929,0.577,0.567,0.53,0.621,0.564,0.614,-0.172,-0.773,0.108
0.968,-0.07,-0.965,-0.895,0.517,0.412,-0.93,0.573,0.563,0.525,0.619,0.562,0.611,-0.172,-0.772,0.111
0.969,-0.073,-0.967,-0.893,0.52,0.41,-0.93,0.575,0.565,0.528,0.621,0.564,0.614,-0.172,-0.775,0.111
0.97,-0.076,-0.97,-0.894,0.523,0.408,-0.932,0.576,0.567,0.529,0.623,0.566,0.614,-0.172,-0.777,0.112
0.971,-0.082,-0.977,-0.894,0.529,0.406,-0.935,0.581,0.569,0.53,0.623,0.565,0.616,-0.173,-0.783,0.113
0.972,-0.086,-0.982,-0.896,0.534,0.405,-0.939,0.584,0.571,0.533,0.623,0.566,0.618,-0.173,-0.786,0.112
0.973,-0.088,-0.985,-0.896,0.536,0.404,-0.941,0.585,0.571,0.532,0.624,0.565,0.618,-0.173,-0.788,0.112
0.974,-0.088,-0.985,-0.896,0.536,0.404,-0.94,0.586,0.568,0.531,0.625,0.565,0.617,-0.174,-0.788,0.112
0.975,-0.089,-0.983,-0.894,0.536,0.403,-0.939,0.584,0.569,0.531,0.624,0.565,0.616,-0.173,-0.786,0.113
0.976,-0.091,-0.987,-0.895,0.539,0.402,-0.941,0.586,0.572,0.533,0.623,0.567,0.618,-0.175,-0.789,0.114
0.977,-0.091,-0.992,-0.9,0.541,0.405,-0.946,0.587,0.572,0.534,0.625,0.567,0.619,-0.175,-0.79,0.113
0.978,-0.092,-0.993,-0.901,0.543,0.404,-0.947,0.586,0.572,0.534,0.625,0.565,0.618,-0.175,-0.792,0.112
0.979,-0.088,-0.991,-0.902,0.539,0.407,-0.947,0.587,0.572,0.532,0.624,0.566,0.617,-0.174,-0.79,0.111
0.98,-0.083,-0.985,-0.902,0.534,0.41,-0.944,0.584,0.571,0.53,0.622,0.566,0.616,-0.172,-0.785,0.11
0.981,-0.081,-0.979,-0.898,0.53,0.409,-0.939,0.583,0.571,0.53,0.62,0.563,0.616,-0.172,-0.782,0.109
0.982,-0.082,-0.977,-0.894,0.529,0.406,-0.935,0.582,0.569,0.53,0.619,0.56,0.613,-0.172,-0.779,0.11
0.983,-0.087,-0.976,-0.889,0.531,0.401,-0.932,0.581,0.568,0.529,0.618,0.561,0.614,-0.173,-0.779,0.11
0.984,-0.093,-0.978,-0.884,0.535,0.396,-0.931,0.581,0.57,0.53,0.619,0.562,0.615,-0.174,-0.782,0.11
0.985,-0.094,-0.978,-0.883,0.536,0.395,-0.93,0.582,0.569,0.529,0.619,0.562,0.614,-0.174,-0.782,0.11
0.986,-0.091,-0.974,-0.882,0.532,0.395,-0.928,0.583,0.57,0.528,0.619,0.562,0.615,-0.174,-0.778,0.108
0.987,-0.086,-0.971,-0.884,0.529,0.399,-0.927,0.58,0.568,0.529,0.618,0.561,0.612,-0.176,-0.776,0.107
0.988,-0.081,-0.97,-0.889,0.525,0.404,-0.929,0.577,0.567,0.528,0.617,0.561,0.612,-0.174,-0.775,0.109
0.989,-0.083,-0.973,-0.89,0.528,0.404,-0.931,0.578,0.568,0.528,0.617,0.561,0.612,-0.173,-0.777,0.111
0.99,-0.086,-0.978,-0.892,0.532,0.403,-0.935,0.579,0.567,0.528,0.619,0.561,0.612,-0.174,-0.781,0.11
0.991,-0.09,-0.983,-0.892,0.537,0.401,-0.938,0.579,0.568,0.529,0.619,0.561,0.614,-0.175,-0.784,0.112
0.992,-0.093,-0.989,-0.895,0.541,0.401,-0.942,0.582,0.571,0.531,0.621,0.564,0.615,-0.176,-0.79,0.111
0.993,-0.097,-0.992,-0.895,0.544,0.399,-0.944,0.583,0.569,0.53,0.62,0.563,0.614,-0.177,-0.795,0.112
0.994,-0.095,-0.991,-0.895,0.543,0.4,-0.943,0.582,0.566,0.53,0.619,0.563,0.614,-0.176,-0.794,0.112
0.995,-0.089,-0.991,-0.901,0.54,0.406,-0.946,0.581,0.567,0.529,0.62,0.566,0.615,-0.174,-0.793,0.112
0.996,-0.092,-0.992,-0.899,0.542,0.404,-0.946,0.582,0.568,0.53,0.621,0.565,0.616,-0.175,-0.794,0.113
0.997,-0.096,-0.995,-0.899,0.546,0.401,-0.947,0.585,0.57,0.534,0.624,0.57,0.618,-0.176,-0.799,0.112
0.998,-0.098,-0.996,-0.898,0.546,0.4,-0.947,0.589,0.573,0.536,0.625,0.571,0.618,-0.174,-0.799,0.11
0.999,-0.094,-0.99,-0.896,0.542,0.401,-0.943,0.59,0.576,0.538,0.626,0.568,0.617,-0.175,-0.794,0.107
1,-0.093,-0.991,-0.896,0.542,0.402,-0.944,0.589,0.58,0.542,0.628,0.568,0.613,-0.177,-0.792,0.104
1.001,-0.096,-0.99,-0.893,0.542,0.399,-0.942,0.592,0.586,0.546,0.63,0.566,0.611,-0.176,-0.788,0.1
1.002,-0.093,-0.984,-0.89,0.538,0.398,-0.936,0.598,0.596,0.552,0.634,0.566,0.608,-0.177,-0.781,0.095
1.003,-0.094,-0.981,-0.887,0.537,0.397,-0.934,0.606,0.608,0.562,0.641,0.566,0.606,-0.18,-0.778,0.089
1.004,-0.1,-0.981,-0.881,0.54,0.391,-0.931,0.618,0.626,0.579,0.65,0.567,0.604,-0.184,-0.777,0.08
1.005,-0.106,-0.982,-0.876,0.544,0.385,-0.929,0.634,0.652,0.601,0.665,0.572,0.603,-0.186,-0.775,0.067
1.006,-0.109,-0.981,-0.872,0.545,0.382,-0.926,0.651,0.682,0.625,0.68,0.578,0.602,-0.187,-0.773,0.051
1.007,-0.114,-0.983,-0.869,0.548,0.378,-0.926,0.668,0.709,0.644,0.692,0.579,0.596,-0.191,-0.771,0.039
1.008,-0.118,-0.985,-0.867,0.551,0.374,-0.925,0.689,0.743,0.67,0.706,0.579,0.589,-0.196,-0.77,0.023
1.009,-0.126,-0.988,-0.862,0.557,0.368,-0.924,0.713,0.778,0.696,0.722,0.581,0.585,-0.2,-0.77,0.009
1.01,-0.133,-0.991,-0.858,0.562,0.362,-0.924,0.729,0.804,0.717,0.737,0.589,0.587,-0.2,-0.771,-0.003
1.011,-0.132,-0.982,-0.85,0.557,0.358,-0.916,0.736,0.823,0.737,0.754,0.601,0.594,-0.195,-0.765,-0.014
1.012,-0.136,-0.979,-0.843,0.557,0.353,-0.911,0.745,0.841,0.753,0.767,0.608,0.6,-0.189,-0.758,-0.023
1.013,-0.144,-0.976,-0.832,0.56,0.344,-0.904,0.76,0.866,0.768,0.776,0.609,0.599,-0.19,-0.752,-0.035
1.014,-0.138,-0.965,-0.828,0.551,0.344,-0.896,0.77,0.886,0.782,0.785,0.614,0.6,-0.186,-0.746,-0.043
1.015,-0.126,-0.951,-0.826,0.538,0.35,-0.888,0.769,0.895,0.791,0.792,0.622,0.608,-0.177,-0.735,-0.049
1.016,-0.128,-0.941,-0.812,0.534,0.342,-0.876,0.776,0.914,0.806,0.803,0.628,0.613,-0.175,-0.727,-0.057
1.017,-0.129,-0.947,-0.818,0.537,0.344,-0.882,0.793,0.95,0.834,0.822,0.637,0.616,-0.17,-0.738,-0.07
1.018,-0.113,-0.943,-0.83,0.528,0.358,-0.886,0.799,0.98,0.859,0.847,0.655,0.63,-0.152,-0.739,-0.08
1.019,-0.095,-0.926,-0.832,0.51,0.368,-0.878,0.796,0.994,0.875,0.865,0.673,0.645,-0.134,-0.728,-0.086
1.02,-0.072,-0.905,-0.833,0.489,0.38,-0.869,0.781,0.988,0.874,0.869,0.686,0.661,-0.117,-0.716,-0.085
1.021,-0.047,-0.877,-0.831,0.463,0.392,-0.854,0.758,0.979,0.872,0.879,0.703,0.681,-0.095,-0.697,-0.081
1.022,-0.016,-0.857,-0.841,0.437,0.412,-0.849,0.744,0.989,0.89,0.904,0.732,0.708,-0.064,-0.687,-0.083
1.023,0.02,-0.841,-0.861,0.41,0.44,-0.851,0.722,0.997,0.907,0.928,0.762,0.737,-0.031,-0.685,-0.082
1.024,0.056,-0.809,-0.865,0.377,0.46,-0.837,0.695,0.998,0.921,0.955,0.797,0.772,0.005,-0.665,-0.079
1.025,0.101,-0.768,-0.869,0.334,0.485,-0.819,0.655,0.992,0.934,0.983,0.844,0.823,0.055,-0.641,-0.071
1.026,0.162,-0.718,-0.879,0.279,0.52,-0.798,0.595,0.96,0.933,1.008,0.898,0.883,0.117,-0.613,-0.054
1.027,0.237,-0.66,-0.897,0.211,0.567,-0.778,0.517,0.911,0.922,1.034,0.961,0.955,0.191,-0.578,-0.029
1.028,0.318,-0.611,-0.929,0.147,0.624,-0.77,0.449,0.895,0.942,1.083,1.032,1.028,0.268,-0.55,-0.013
1.029,0.381,-0.564,-0.945,0.092,0.663,-0.754,0.4,0.889,0.972,1.137,1.103,1.097,0.333,-0.517,-0.009
1.03,0.422,-0.499,-0.922,0.038,0.672,-0.711,0.351,0.843,0.968,1.163,1.159,1.161,0.38,-0.463,0.002
1.031,0.467,-0.433,-0.9,-0.017,0.683,-0.667,0.294,0.772,0.947,1.177,1.216,1.23,0.428,-0.408,0.019
1.032,0.518,-0.359,-0.879,-0.08,0.699,-0.62,0.217,0.674,0.911,1.19,1.28,1.31,0.486,-0.349,0.043
1.033,0.575,-0.279,-0.854,-0.148,0.715,-0.567,0.133,0.552,0.851,1.19,1.343,1.396,0.547,-0.284,0.073
1.034,0.635,-0.225,-0.861,-0.205,0.748,-0.543,0.06,0.441,0.799,1.196,1.411,1.476,0.616,-0.249,0.102
1.035,0.685,-0.185,-0.872,-0.25,0.778,-0.528,0.006,0.35,0.769,1.215,1.476,1.55,0.678,-0.221,0.117
1.036,0.731,-0.147,-0.878,-0.292,0.804,-0.513,-0.05,0.242,0.722,1.224,1.538,1.623,0.738,-0.194,0.14
1.037,0.771,-0.133,-0.904,-0.32,0.838,-0.518,-0.093,0.146,0.695,1.249,1.605,1.694,0.799,-0.192,0.152
1.038,0.819,-0.14,-0.959,-0.339,0.888,-0.549,-0.111,0.113,0.714,1.298,1.673,1.755,0.863,-0.212,0.148
1.039,0.87,-0.162,-1.032,-0.354,0.951,-0.597,-0.137,0.062,0.703,1.324,1.724,1.803,0.92,-0.247,0.159
1.04,0.913,-0.175,-1.089,-0.369,1.001,-0.632,-0.172,-0.019,0.662,1.325,1.758,1.841,0.965,-0.272,0.178
1.041,0.932,-0.194,-1.125,-0.369,1.028,-0.659,-0.178,-0.043,0.652,1.332,1.774,1.848,0.987,-0.294,0.184
1.042,0.881,-0.255,-1.137,-0.313,1.009,-0.696,-0.14,-0.065,0.624,1.308,1.752,1.831,0.956,-0.331,0.191
1.043,0.769,-0.314,-1.083,-0.228,0.926,-0.699,-0.075,-0.098,0.578,1.256,1.699,1.786,0.879,-0.344,0.198
1.044,0.637,-0.367,-1.004,-0.135,0.821,-0.685,0.002,-0.115,0.524,1.175,1.597,1.692,0.768,-0.353,0.202
1.045,0.53,-0.427,-0.958,-0.051,0.744,-0.693,0.052,-0.16,0.452,1.087,1.5,1.603,0.668,-0.383,0.212
1.046,0.456,-0.504,-0.96,0.025,0.708,-0.733,0.096,-0.182,0.397,1.016,1.409,1.512,0.582,-0.436,0.217
1.047,0.396,-0.575,-0.972,0.089,0.684,-0.773,0.133,-0.198,0.331,0.928,1.3,1.409,0.491,-0.486,0.233
1.048,0.35,-0.603,-0.954,0.126,0.652,-0.778,0.163,-0.194,0.293,0.869,1.219,1.331,0.418,-0.499,0.236
1.049,0.288,-0.638,-0.927,0.175,0.608,-0.783,0.211,-0.192,0.245,0.791,1.119,1.242,0.327,-0.513,0.238
1.05,0.2,-0.673,-0.873,0.237,0.536,-0.773,0.253,-0.237,0.152,0.672,0.992,1.135,0.212,-0.525,0.253
1.051,0.104,-0.701,-0.805,0.298,0.455,-0.753,0.289,-0.305,0.043,0.538,0.853,1.018,0.086,-0.53,0.269
1.052,0.019,-0.736,-0.755,0.358,0.387,-0.746,0.322,-0.38,-0.073,0.399,0.718,0.908,-0.034,-0.543,0.288
1.053,-0.049,-0.769,-0.721,0.409,0.336,-0.746,0.372,-0.388,-0.138,0.299,0.61,0.817,-0.128,-0.557,0.295
1.054,-0.108,-0.804,-0.695,0.457,0.293,-0.75,0.432,-0.368,-0.185,0.207,0.507,0.73,-0.211,-0.573,0.304
1.055,-0.159,-0.846,-0.686,0.502,0.264,-0.766,0.476,-0.343,-0.207,0.154,0.434,0.658,-0.276,-0.598,0.31
1.056,-0.193,-0.893,-0.701,0.543,0.254,-0.796,0.512,-0.293,-0.192,0.14,0.387,0.6,-0.321,-0.632,0.308
1.057,-0.229,-0.944,-0.715,0.586,0.243,-0.829,0.545,-0.242,-0.181,0.121,0.342,0.542,-0.364,-0.674,0.309
1.058,-0.259,-0.987,-0.729,0.623,0.235,-0.858,0.578,-0.194,-0.169,0.111,0.313,0.504,-0.393,-0.708,0.31
1.059,-0.257,-1.022,-0.764,0.639,0.254,-0.893,0.595,-0.135,-0.137,0.122,0.308,0.489,-0.392,-0.736,0.31
1.06,-0.253,-1.071,-0.819,0.662,0.282,-0.945,0.634,-0.048,-0.089,0.14,0.297,0.467,-0.391,-0.784,0.303
1.061,-0.258,-1.121,-0.863,0.69,0.302,-0.992,0.69,0.048,-0.044,0.149,0.281,0.439,-0.397,-0.829,0.289
1.062,-0.258,-1.162,-0.904,0.71,0.324,-1.034,0.731,0.143,0.009,0.175,0.276,0.42,-0.391,-0.869,0.278
1.063,-0.255,-1.192,-0.938,0.724,0.342,-1.065,0.757,0.212,0.05,0.197,0.276,0.409,-0.385,-0.9,0.268
1.064,-0.248,-1.221,-0.973,0.735,0.362,-1.097,0.773,0.27,0.085,0.216,0.276,0.402,-0.38,-0.93,0.258
1.065,-0.247,-1.246,-1,0.747,0.376,-1.123,0.786,0.314,0.114,0.234,0.276,0.395,-0.374,-0.959,0.251
1.066,-0.248,-1.259,-1.01,0.754,0.381,-1.135,0.783,0.33,0.132,0.247,0.279,0.388,-0.374,-0.975,0.241
1.067,-0.234,-1.266,-1.032,0.75,0.399,-1.149,0.762,0.349,0.156,0.268,0.287,0.391,-0.362,-0.988,0.237
1.068,-0.221,-1.254,-1.033,0.738,0.406,-1.144,0.746,0.372,0.187,0.294,0.305,0.401,-0.346,-0.983,0.228
1.069,-0.217,-1.233,-1.016,0.725,0.399,-1.125,0.726,0.386,0.22,0.324,0.33,0.417,-0.334,-0.97,0.214
1.07,-0.209,-1.209,-0.999,0.71,0.395,-1.104,0.718,0.408,0.255,0.356,0.353,0.438,-0.32,-0.955,0.2
1.071,-0.205,-1.197,-0.992,0.702,0.393,-1.095,0.723,0.436,0.291,0.39,0.377,0.454,-0.307,-0.945,0.182
1.072,-0.203,-1.185,-0.982,0.694,0.39,-1.083,0.726,0.456,0.323,0.416,0.4,0.469,-0.293,-0.931,0.168
1.073,-0.192,-1.165,-0.974,0.679,0.391,-1.069,0.726,0.477,0.355,0.445,0.421,0.485,-0.278,-0.92,0.154
1.074,-0.172,-1.148,-0.977,0.66,0.403,-1.062,0.725,0.504,0.387,0.474,0.444,0.503,-0.257,-0.91,0.145
1.075,-0.148,-1.133,-0.985,0.641,0.418,-1.059,0.724,0.533,0.419,0.503,0.467,0.521,-0.232,-0.903,0.138
1.076,-0.129,-1.121,-0.992,0.625,0.431,-1.056,0.709,0.552,0.446,0.528,0.485,0.536,-0.211,-0.901,0.134
1.077,-0.12,-1.103,-0.983,0.612,0.431,-1.043,0.692,0.558,0.466,0.547,0.502,0.553,-0.199,-0.89,0.132
1.078,-0.116,-1.089,-0.973,0.603,0.428,-1.031,0.686,0.571,0.488,0.57,0.52,0.569,-0.188,-0.883,0.123
1.079,-0.098,-1.068,-0.971,0.583,0.436,-1.02,0.675,0.589,0.511,0.588,0.536,0.582,-0.173,-0.867,0.117
1.08,-0.08,-1.046,-0.966,0.562,0.443,-1.006,0.659,0.602,0.528,0.604,0.548,0.591,-0.164,-0.85,0.113
1.081,-0.065,-1.026,-0.962,0.545,0.448,-0.994,0.643,0.614,0.539,0.614,0.556,0.597,-0.158,-0.839,0.111
1.082,-0.059,-1.009,-0.951,0.534,0.446,-0.98,0.633,0.621,0.547,0.62,0.562,0.6,-0.155,-0.826,0.109
1.083,-0.052,-0.994,-0.942,0.523,0.445,-0.968,0.625,0.623,0.554,0.626,0.567,0.603,-0.154,-0.812,0.105
1.084,-0.048,-0.982,-0.934,0.514,0.443,-0.958,0.619,0.632,0.566,0.635,0.574,0.611,-0.152,-0.8,0.102
1.085,-0.051,-0.964,-0.913,0.507,0.43,-0.939,0.62,0.643,0.576,0.649,0.581,0.618,-0.153,-0.794,0.1
1.086,-0.053,-0.954,-0.9,0.504,0.423,-0.927,0.617,0.648,0.586,0.654,0.588,0.623,-0.151,-0.777,0.095
1.087,-0.05,-0.951,-0.9,0.5,0.425,-0.925,0.615,0.651,0.593,0.657,0.591,0.625,-0.149,-0.765,0.092
1.088,-0.043,-0.941,-0.899,0.492,0.428,-0.92,0.612,0.653,0.595,0.66,0.59,0.626,-0.148,-0.758,0.092
1.089,-0.045,-0.939,-0.893,0.492,0.423,-0.916,0.612,0.656,0.6,0.662,0.593,0.629,-0.148,-0.753,0.092
1.09,-0.048,-0.936,-0.889,0.492,0.42,-0.912,0.616,0.66,0.605,0.668,0.597,0.632,-0.148,-0.751,0.091
1.091,-0.051,-0.939,-0.888,0.495,0.419,-0.914,0.621,0.664,0.61,0.671,0.599,0.635,-0.148,-0.752,0.09
1.092,-0.054,-0.941,-0.887,0.498,0.416,-0.914,0.625,0.669,0.615,0.676,0.603,0.638,-0.147,-0.756,0.09
1.093,-0.052,-0.941,-0.889,0.497,0.418,-0.915,0.625,0.671,0.617,0.679,0.604,0.639,-0.146,-0.757,0.089
1.094,-0.049,-0.94,-0.891,0.495,0.421,-0.916,0.624,0.672,0.617,0.677,0.603,0.64,-0.145,-0.757,0.088
1.095,-0.044,-0.939,-0.894,0.491,0.425,-0.916,0.622,0.673,0.617,0.678,0.605,0.641,-0.144,-0.756,0.087
1.096,-0.043,-0.942,-0.899,0.493,0.427,-0.92,0.62,0.673,0.618,0.68,0.605,0.64,-0.144,-0.757,0.087
1.097,-0.046,-0.942,-0.895,0.494,0.424,-0.918,0.621,0.675,0.622,0.683,0.607,0.642,-0.143,-0.755,0.087
1.098,-0.053,-0.944,-0.89,0.499,0.418,-0.917,0.625,0.681,0.626,0.689,0.612,0.646,-0.144,-0.758,0.085
1.099,-0.049,-0.941,-0.892,0.495,0.421,-0.916,0.622,0.682,0.628,0.692,0.613,0.646,-0.141,-0.756,0.086
1.1,-0.043,-0.936,-0.893,0.49,0.425,-0.915,0.618,0.679,0.625,0.69,0.612,0.645,-0.141,-0.753,0.085
1.101,-0.042,-0.934,-0.892,0.488,0.425,-0.913,0.613,0.677,0.624,0.688,0.61,0.644,-0.14,-0.75,0.083
1.102,-0.036,-0.924,-0.888,0.48,0.426,-0.906,0.609,0.676,0.624,0.688,0.609,0.644,-0.137,-0.741,0.085
1.103,-0.034,-0.921,-0.887,0.478,0.426,-0.904,0.607,0.676,0.625,0.689,0.611,0.645,-0.137,-0.739,0.084
1.104,-0.033,-0.921,-0.887,0.477,0.427,-0.904,0.605,0.676,0.626,0.692,0.611,0.646,-0.136,-0.74,0.083
1.105,-0.035,-0.919,-0.885,0.477,0.425,-0.902,0.604,0.68,0.628,0.694,0.613,0.647,-0.136,-0.736,0.083
1.106,-0.034,-0.916,-0.882,0.475,0.423,-0.899,0.604,0.682,0.629,0.695,0.616,0.648,-0.135,-0.734,0.081
1.107,-0.032,-0.913,-0.881,0.472,0.424,-0.897,0.602,0.679,0.628,0.694,0.615,0.648,-0.134,-0.732,0.081
1.108,-0.028,-0.911,-0.883,0.469,0.427,-0.897,0.597,0.679,0.628,0.694,0.613,0.647,-0.135,-0.731,0.082
1.109,-0.029,-0.911,-0.882,0.47,0.426,-0.896,0.597,0.679,0.629,0.696,0.614,0.647,-0.135,-0.732,0.083
1.11,-0.03,-0.914,-0.884,0.472,0.427,-0.899,0.599,0.683,0.632,0.698,0.618,0.651,-0.134,-0.734,0.084
1.111,-0.033,-0.919,-0.887,0.476,0.427,-0.903,0.599,0.686,0.637,0.7,0.621,0.653,-0.133,-0.738,0.084
1.112,-0.034,-0.922,-0.888,0.478,0.427,-0.905,0.599,0.687,0.64,0.701,0.622,0.655,-0.132,-0.74,0.084
1.113,-0.033,-0.922,-0.889,0.478,0.427,-0.905,0.599,0.688,0.641,0.704,0.624,0.656,-0.131,-0.742,0.085
1.114,-0.033,-0.922,-0.888,0.477,0.427,-0.905,0.598,0.69,0.644,0.705,0.626,0.655,-0.131,-0.742,0.085
1.115,-0.027,-0.92,-0.893,0.474,0.433,-0.907,0.597,0.689,0.645,0.705,0.628,0.657,-0.127,-0.74,0.085
1.116,-0.027,-0.922,-0.894,0.475,0.433,-0.908,0.595,0.688,0.643,0.706,0.627,0.657,-0.125,-0.742,0.086
1.117,-0.03,-0.922,-0.891,0.476,0.43,-0.906,0.595,0.691,0.646,0.708,0.628,0.659,-0.125,-0.743,0.086
1.118,-0.033,-0.922,-0.889,0.478,0.428,-0.906,0.598,0.694,0.651,0.712,0.632,0.663,-0.122,-0.744,0.085
1.119,-0.031,-0.922,-0.891,0.476,0.43,-0.906,0.598,0.695,0.653,0.714,0.635,0.665,-0.12,-0.742,0.083
1.12,-0.024,-0.914,-0.891,0.469,0.433,-0.903,0.594,0.693,0.653,0.713,0.632,0.662,-0.12,-0.735,0.082
1.121,-0.021,-0.908,-0.888,0.465,0.433,-0.898,0.591,0.691,0.651,0.712,0.63,0.661,-0.119,-0.732,0.082
1.122,-0.015,-0.902,-0.888,0.459,0.436,-0.895,0.589,0.691,0.65,0.712,0.63,0.662,-0.117,-0.728,0.083
1.123,-0.013,-0.9,-0.886,0.458,0.436,-0.893,0.587,0.689,0.649,0.712,0.63,0.66,-0.118,-0.725,0.084
1.124,-0.015,-0.899,-0.884,0.458,0.434,-0.892,0.587,0.686,0.648,0.712,0.632,0.66,-0.118,-0.724,0.083
1.125,-0.015,-0.897,-0.882,0.456,0.433,-0.889,0.587,0.689,0.65,0.713,0.632,0.661,-0.117,-0.724,0.083
1.126,-0.015,-0.895,-0.88,0.455,0.433,-0.887,0.587,0.691,0.653,0.716,0.633,0.663,-0.117,-0.723,0.081
1.127,-0.011,-0.893,-0.882,0.452,0.435,-0.888,0.586,0.69,0.653,0.716,0.634,0.663,-0.116,-0.719,0.083
1.128,-0.006,-0.891,-0.884,0.449,0.439,-0.888,0.581,0.688,0.651,0.715,0.634,0.662,-0.116,-0.717,0.083
1.129,-0.007,-0.892,-0.885,0.45,0.439,-0.888,0.582,0.689,0.654,0.718,0.634,0.665,-0.117,-0.719,0.083
1.13,-0.008,-0.893,-0.885,0.451,0.439,-0.889,0.583,0.692,0.658,0.72,0.637,0.667,-0.118,-0.723,0.083
1.131,-0.011,-0.896,-0.885,0.455,0.436,-0.891,0.583,0.695,0.658,0.723,0.64,0.668,-0.117,-0.727,0.082
1.132,-0.015,-0.902,-0.886,0.459,0.435,-0.894,0.587,0.696,0.662,0.725,0.643,0.669,-0.117,-0.73,0.083
1.133,-0.013,-0.904,-0.891,0.459,0.439,-0.897,0.586,0.697,0.666,0.725,0.644,0.671,-0.116,-0.733,0.083
1.134,-0.013,-0.902,-0.889,0.458,0.438,-0.896,0.586,0.699,0.668,0.729,0.645,0.672,-0.116,-0.731,0.083
1.135,-0.011,-0.899,-0.888,0.456,0.438,-0.893,0.585,0.7,0.672,0.732,0.648,0.672,-0.115,-0.729,0.082
1.136,-0.009,-0.9,-0.891,0.455,0.441,-0.896,0.583,0.701,0.671,0.731,0.647,0.674,-0.114,-0.728,0.084
1.137,-0.007,-0.902,-0.895,0.455,0.444,-0.898,0.58,0.701,0.669,0.731,0.648,0.673,-0.113,-0.729,0.083
1.138,-0.011,-0.904,-0.893,0.459,0.441,-0.899,0.585,0.704,0.672,0.735,0.651,0.675,-0.113,-0.733,0.082
1.139,-0.013,-0.904,-0.891,0.46,0.439,-0.897,0.587,0.707,0.676,0.739,0.652,0.678,-0.112,-0.731,0.081
1.14,-0.004,-0.897,-0.893,0.451,0.445,-0.895,0.582,0.706,0.675,0.739,0.652,0.677,-0.109,-0.723,0.081
1.141,-0.001,-0.889,-0.889,0.446,0.444,-0.889,0.581,0.706,0.675,0.739,0.651,0.676,-0.108,-0.717,0.08
1.142,0.002,-0.884,-0.886,0.442,0.444,-0.885,0.578,0.702,0.673,0.736,0.65,0.676,-0.106,-0.716,0.08
1.143,0.001,-0.882,-0.883,0.441,0.442,-0.882,0.575,0.701,0.673,0.736,0.65,0.675,-0.107,-0.716,0.079
1.144,0,-0.884,-0.884,0.442,0.442,-0.884,0.576,0.703,0.676,0.737,0.651,0.675,-0.106,-0.718,0.08
1.145,0.001,-0.884,-0.885,0.442,0.443,-0.884,0.575,0.705,0.675,0.738,0.651,0.677,-0.104,-0.718,0.081
1.146,-0.001,-0.879,-0.878,0.44,0.439,-0.879,0.577,0.707,0.678,0.739,0.652,0.678,-0.105,-0.712,0.078
1.147,0.001,-0.88,-0.881,0.44,0.441,-0.88,0.575,0.705,0.679,0.738,0.651,0.677,-0.103,-0.711,0.08
1.148,0.004,-0.879,-0.883,0.438,0.444,-0.881,0.57,0.705,0.678,0.739,0.65,0.677,-0.102,-0.707,0.08
1.149,0.005,-0.879,-0.885,0.438,0.445,-0.882,0.571,0.707,0.68,0.741,0.651,0.677,-0.102,-0.706,0.08
1.15,0.004,-0.884,-0.888,0.441,0.446,-0.886,0.57,0.709,0.682,0.744,0.653,0.678,-0.102,-0.713,0.08
1.151,0.001,-0.887,-0.888,0.444,0.445,-0.888,0.572,0.712,0.684,0.745,0.655,0.68,-0.102,-0.716,0.081
1.152,-0.001,-0.89,-0.889,0.446,0.444,-0.889,0.574,0.715,0.688,0.748,0.657,0.681,-0.102,-0.721,0.08
1.153,-0.003,-0.891,-0.888,0.447,0.443,-0.889,0.574,0.717,0.691,0.75,0.659,0.683,-0.101,-0.723,0.08
1.154,0.001,-0.888,-0.889,0.444,0.445,-0.888,0.573,0.717,0.692,0.75,0.659,0.684,-0.101,-0.72,0.081
1.155,0.005,-0.885,-0.89,0.44,0.448,-0.888,0.573,0.718,0.693,0.752,0.661,0.682,-0.101,-0.719,0.079
1.156,0.006,-0.888,-0.894,0.441,0.45,-0.891,0.57,0.719,0.694,0.753,0.66,0.683,-0.098,-0.721,0.082
1.157,0.007,-0.888,-0.894,0.441,0.451,-0.891,0.572,0.723,0.696,0.755,0.662,0.686,-0.097,-0.722,0.082
1.158,0.001,-0.888,-0.888,0.444,0.445,-0.888,0.576,0.728,0.702,0.758,0.667,0.691,-0.095,-0.722,0.08
1.159,0,-0.888,-0.888,0.445,0.444,-0.888,0.576,0.729,0.703,0.76,0.668,0.693,-0.092,-0.722,0.081
1.16,0.009,-0.885,-0.893,0.439,0.451,-0.889,0.573,0.729,0.703,0.759,0.668,0.692,-0.091,-0.72,0.08
1.161,0.013,-0.877,-0.89,0.432,0.452,-0.883,0.57,0.73,0.704,0.759,0.666,0.691,-0.09,-0.715,0.08
1.162,0.016,-0.872,-0.888,0.428,0.452,-0.88,0.568,0.728,0.703,0.76,0.665,0.69,-0.089,-0.709,0.079
1.163,0.018,-0.869,-0.886,0.425,0.452,-0.877,0.564,0.73,0.703,0.76,0.666,0.69,-0.087,-0.706,0.08
1.164,0.02,-0.866,-0.886,0.423,0.453,-0.876,0.565,0.732,0.705,0.761,0.666,0.691,-0.086,-0.705,0.079
1.165,0.021,-0.866,-0.887,0.423,0.454,-0.876,0.565,0.735,0.709,0.762,0.667,0.693,-0.085,-0.705,0.08
1.166,0.02,-0.864,-0.883,0.422,0.452,-0.874,0.566,0.736,0.71,0.765,0.669,0.693,-0.084,-0.704,0.077
1.167,0.022,-0.863,-0.885,0.42,0.453,-0.874,0.564,0.735,0.711,0.766,0.669,0.692,-0.083,-0.704,0.079
1.168,0.027,-0.861,-0.888,0.417,0.458,-0.875,0.559,0.735,0.711,0.766,0.667,0.692,-0.081,-0.702,0.081
1.169,0.026,-0.864,-0.889,0.419,0.458,-0.876,0.558,0.735,0.713,0.766,0.667,0.691,-0.083,-0.704,0.08
1.17,0.024,-0.866,-0.889,0.421,0.457,-0.877,0.558,0.739,0.715,0.769,0.67,0.692,-0.082,-0.708,0.08
1.171,0.022,-0.868,-0.89,0.422,0.456,-0.879,0.56,0.741,0.719,0.774,0.672,0.696,-0.081,-0.709,0.081
1.172,0.018,-0.874,-0.892,0.428,0.456,-0.883,0.562,0.746,0.724,0.776,0.675,0.7,-0.081,-0.713,0.081
1.173,0.017,-0.876,-0.894,0.429,0.456,-0.885,0.563,0.75,0.725,0.78,0.677,0.701,-0.08,-0.715,0.08
1.174,0.018,-0.875,-0.893,0.429,0.456,-0.884,0.563,0.75,0.726,0.782,0.678,0.7,-0.08,-0.715,0.079
1.175,0.021,-0.874,-0.894,0.426,0.458,-0.884,0.561,0.75,0.726,0.782,0.68,0.702,-0.079,-0.713,0.077
1.176,0.021,-0.875,-0.897,0.427,0.459,-0.886,0.559,0.75,0.727,0.782,0.679,0.7,-0.08,-0.714,0.079
1.177,0.018,-0.877,-0.895,0.43,0.456,-0.886,0.561,0.752,0.729,0.784,0.68,0.701,-0.079,-0.716,0.081
1.178,0.017,-0.876,-0.893,0.43,0.455,-0.885,0.565,0.758,0.732,0.788,0.684,0.704,-0.075,-0.715,0.079
1.179,0.017,-0.877,-0.894,0.43,0.455,-0.885,0.565,0.762,0.736,0.791,0.686,0.707,-0.075,-0.715,0.077
1.18,0.021,-0.873,-0.894,0.426,0.457,-0.883,0.561,0.76,0.735,0.791,0.687,0.707,-0.073,-0.71,0.076
1.181,0.028,-0.866,-0.893,0.419,0.46,-0.879,0.556,0.76,0.733,0.791,0.686,0.706,-0.071,-0.703,0.076
1.182,0.03,-0.861,-0.891,0.415,0.46,-0.875,0.554,0.762,0.734,0.788,0.684,0.705,-0.071,-0.701,0.076
1.183,0.034,-0.86,-0.893,0.413,0.464,-0.876,0.552,0.761,0.735,0.789,0.684,0.704,-0.071,-0.699,0.076
1.184,0.034,-0.86,-0.893,0.413,0.464,-0.876,0.552,0.764,0.738,0.793,0.687,0.707,-0.069,-0.698,0.076
1.185,0.032,-0.858,-0.889,0.413,0.46,-0.874,0.552,0.768,0.74,0.794,0.689,0.707,-0.068,-0.699,0.076
1.186,0.03,-0.855,-0.885,0.412,0.457,-0.87,0.553,0.768,0.742,0.796,0.689,0.708,-0.068,-0.695,0.075
1.187,0.035,-0.852,-0.886,0.408,0.461,-0.869,0.553,0.77,0.744,0.798,0.689,0.709,-0.065,-0.692,0.075
1.188,0.043,-0.849,-0.891,0.403,0.467,-0.871,0.549,0.768,0.742,0.796,0.688,0.706,-0.066,-0.688,0.076
1.189,0.042,-0.851,-0.893,0.405,0.467,-0.872,0.548,0.769,0.742,0.795,0.687,0.707,-0.066,-0.691,0.077
1.19,0.038,-0.855,-0.893,0.408,0.466,-0.874,0.55,0.772,0.744,0.798,0.688,0.709,-0.066,-0.697,0.077
1.191,0.035,-0.858,-0.894,0.411,0.465,-0.876,0.552,0.775,0.746,0.799,0.691,0.709,-0.068,-0.699,0.079
1.192,0.035,-0.862,-0.897,0.414,0.466,-0.88,0.555,0.779,0.751,0.802,0.693,0.713,-0.067,-0.703,0.078
1.193,0.035,-0.864,-0.898,0.414,0.467,-0.881,0.555,0.78,0.754,0.805,0.694,0.715,-0.065,-0.706,0.078
1.194,0.035,-0.863,-0.897,0.414,0.466,-0.88,0.552,0.782,0.753,0.805,0.694,0.716,-0.064,-0.705,0.079
1.195,0.038,-0.863,-0.901,0.412,0.469,-0.882,0.551,0.784,0.755,0.806,0.695,0.715,-0.062,-0.704,0.078
1.196,0.038,-0.866,-0.904,0.414,0.471,-0.884,0.549,0.783,0.755,0.806,0.693,0.715,-0.064,-0.704,0.08
1.197,0.037,-0.865,-0.903,0.414,0.47,-0.884,0.549,0.786,0.756,0.807,0.693,0.715,-0.065,-0.708,0.079
1.198,0.037,-0.864,-0.901,0.413,0.469,-0.882,0.553,0.79,0.761,0.811,0.699,0.718,-0.064,-0.708,0.077
