'Elapsed time','i','ii','iii','avr','avl','avf','v1','v2','v3','v4','v5','v6','vx','vy','vz'
'hh:mm:ss.mmm','mV','mV','mV','mV','mV','mV','mV','mV','mV','mV','mV','mV','mV','mV','mV'
'0:00.000',-2.088,-2.064,0.025,2.076,-1.056,-1.020,-1.508,-1.056,-1.739,-1.415,-0.528,-0.462,-0.077,0.032,0.074
'0:00.001',-2.092,-2.067,0.025,2.080,-1.059,-1.021,-1.506,-1.060,-1.742,-1.421,-0.535,-0.463,-0.082,0.030,0.079
'0:00.002',-2.089,-2.062,0.027,2.075,-1.058,-1.018,-1.506,-1.061,-1.744,-1.423,-0.537,-0.463,-0.087,0.033,0.080
'0:00.003',-2.091,-2.063,0.028,2.077,-1.060,-1.018,-1.504,-1.062,-1.744,-1.425,-0.540,-0.468,-0.090,0.037,0.081
'0:00.004',-2.095,-2.066,0.029,2.080,-1.062,-1.018,-1.508,-1.066,-1.750,-1.431,-0.545,-0.470,-0.094,0.035,0.082
'0:00.005',-2.095,-2.065,0.030,2.080,-1.063,-1.017,-1.512,-1.073,-1.756,-1.437,-0.550,-0.472,-0.097,0.033,0.087
'0:00.006',-2.095,-2.062,0.032,2.079,-1.064,-1.015,-1.514,-1.081,-1.762,-1.442,-0.554,-0.476,-0.102,0.034,0.091
'0:00.007',-2.093,-2.062,0.031,2.078,-1.062,-1.015,-1.520,-1.087,-1.768,-1.446,-0.556,-0.476,-0.102,0.036,0.096
'0:00.008',-2.095,-2.067,0.029,2.082,-1.062,-1.018,-1.526,-1.091,-1.773,-1.450,-0.557,-0.477,-0.103,0.038,0.099
'0:00.009',-2.099,-2.070,0.029,2.084,-1.065,-1.020,-1.528,-1.095,-1.776,-1.454,-0.560,-0.479,-0.106,0.037,0.099
'0:00.010',-2.095,-2.063,0.032,2.079,-1.063,-1.016,-1.530,-1.101,-1.780,-1.452,-0.558,-0.478,-0.104,0.041,0.100
'0:00.011',-2.086,-2.059,0.026,2.072,-1.056,-1.016,-1.536,-1.102,-1.780,-1.452,-0.558,-0.477,-0.101,0.039,0.101
'0:00.012',-2.088,-2.066,0.022,2.077,-1.056,-1.022,-1.534,-1.103,-1.782,-1.454,-0.560,-0.479,-0.102,0.035,0.102
'0:00.013',-2.091,-2.070,0.021,2.080,-1.056,-1.024,-1.529,-1.100,-1.782,-1.455,-0.560,-0.480,-0.104,0.030,0.100
'0:00.014',-2.091,-2.075,0.015,2.083,-1.054,-1.030,-1.524,-1.098,-1.782,-1.456,-0.562,-0.481,-0.105,0.025,0.098
'0:00.015',-2.098,-2.086,0.012,2.091,-1.055,-1.036,-1.521,-1.098,-1.782,-1.456,-0.562,-0.482,-0.107,0.021,0.097
'0:00.016',-2.097,-2.091,0.005,2.095,-1.051,-1.044,-1.516,-1.093,-1.780,-1.456,-0.561,-0.483,-0.108,0.013,0.095
'0:00.017',-2.096,-2.092,0.004,2.095,-1.050,-1.044,-1.513,-1.091,-1.778,-1.456,-0.564,-0.484,-0.110,0.013,0.094
'0:00.018',-2.103,-2.100,0.004,2.102,-1.054,-1.048,-1.509,-1.088,-1.776,-1.454,-0.565,-0.485,-0.112,0.011,0.092
'0:00.019',-2.104,-2.103,0.001,2.103,-1.052,-1.051,-1.504,-1.083,-1.772,-1.450,-0.562,-0.485,-0.113,0.009,0.088
'0:00.020',-2.102,-2.104,-0.003,2.103,-1.050,-1.053,-1.500,-1.080,-1.768,-1.446,-0.558,-0.481,-0.111,0.007,0.086
'0:00.021',-2.106,-2.111,-0.005,2.108,-1.050,-1.058,-1.500,-1.081,-1.772,-1.449,-0.559,-0.481,-0.111,0.003,0.087
'0:00.022',-2.100,-2.111,-0.010,2.106,-1.046,-1.060,-1.498,-1.079,-1.773,-1.454,-0.564,-0.484,-0.113,-0.001,0.088
'0:00.023',-2.103,-2.112,-0.010,2.107,-1.046,-1.061,-1.500,-1.083,-1.776,-1.456,-0.566,-0.484,-0.114,-0.002,0.090
'0:00.024',-2.103,-2.115,-0.011,2.110,-1.046,-1.063,-1.504,-1.089,-1.783,-1.464,-0.570,-0.487,-0.114,-0.005,0.098
'0:00.025',-2.099,-2.115,-0.017,2.107,-1.041,-1.066,-1.504,-1.090,-1.786,-1.470,-0.574,-0.491,-0.117,-0.009,0.099
'0:00.026',-2.095,-2.112,-0.017,2.103,-1.039,-1.064,-1.502,-1.091,-1.791,-1.470,-0.574,-0.489,-0.117,-0.009,0.097
'0:00.027',-2.091,-2.107,-0.016,2.099,-1.038,-1.062,-1.504,-1.095,-1.791,-1.470,-0.574,-0.488,-0.117,-0.006,0.100
'0:00.028',-2.088,-2.105,-0.017,2.097,-1.036,-1.060,-1.508,-1.100,-1.792,-1.472,-0.572,-0.487,-0.115,-0.003,0.102
'0:00.029',-2.084,-2.103,-0.018,2.094,-1.034,-1.060,-1.510,-1.101,-1.793,-1.474,-0.574,-0.488,-0.114,-0.002,0.101
'0:00.030',-2.087,-2.105,-0.018,2.096,-1.035,-1.061,-1.509,-1.101,-1.794,-1.474,-0.577,-0.490,-0.116,-0.003,0.101
'0:00.031',-2.088,-2.106,-0.017,2.097,-1.036,-1.061,-1.510,-1.102,-1.795,-1.478,-0.580,-0.492,-0.117,-0.004,0.098
'0:00.032',-2.097,-2.107,-0.009,2.102,-1.044,-1.058,-1.512,-1.102,-1.794,-1.477,-0.579,-0.491,-0.117,0.002,0.094
'0:00.033',-2.097,-2.106,-0.009,2.102,-1.044,-1.058,-1.512,-1.101,-1.792,-1.472,-0.578,-0.489,-0.116,0.004,0.092
'0:00.034',-2.095,-2.107,-0.012,2.101,-1.042,-1.059,-1.510,-1.099,-1.792,-1.472,-0.578,-0.489,-0.118,0.002,0.090
'0:00.035',-2.102,-2.106,-0.004,2.104,-1.050,-1.054,-1.510,-1.101,-1.792,-1.470,-0.576,-0.486,-0.119,0.009,0.091
'0:00.036',-2.104,-2.102,0.003,2.103,-1.054,-1.050,-1.510,-1.101,-1.788,-1.466,-0.576,-0.488,-0.122,0.017,0.089
'0:00.037',-2.117,-2.102,0.015,2.110,-1.066,-1.044,-1.507,-1.100,-1.785,-1.464,-0.574,-0.490,-0.126,0.025,0.083
'0:00.038',-2.130,-2.104,0.026,2.117,-1.079,-1.038,-1.500,-1.096,-1.782,-1.462,-0.572,-0.489,-0.130,0.028,0.076
'0:00.039',-2.140,-2.111,0.030,2.126,-1.085,-1.040,-1.492,-1.093,-1.781,-1.462,-0.575,-0.495,-0.139,0.023,0.071
'0:00.040',-2.152,-2.119,0.033,2.136,-1.093,-1.043,-1.488,-1.094,-1.783,-1.464,-0.580,-0.500,-0.145,0.017,0.068
'0:00.041',-2.163,-2.131,0.032,2.147,-1.097,-1.049,-1.480,-1.093,-1.782,-1.464,-0.580,-0.503,-0.152,0.012,0.065
'0:00.042',-2.163,-2.135,0.028,2.148,-1.095,-1.053,-1.473,-1.089,-1.780,-1.464,-0.581,-0.504,-0.155,0.004,0.062
'0:00.043',-2.159,-2.134,0.025,2.146,-1.092,-1.054,-1.474,-1.089,-1.780,-1.464,-0.582,-0.505,-0.157,0.000,0.062
'0:00.044',-2.162,-2.136,0.025,2.149,-1.093,-1.056,-1.474,-1.088,-1.782,-1.468,-0.586,-0.508,-0.161,-0.003,0.064
'0:00.045',-2.160,-2.138,0.023,2.148,-1.092,-1.057,-1.470,-1.087,-1.782,-1.466,-0.587,-0.509,-0.160,-0.005,0.062
'0:00.046',-2.160,-2.136,0.024,2.148,-1.092,-1.056,-1.470,-1.087,-1.782,-1.466,-0.587,-0.509,-0.162,-0.004,0.060
'0:00.047',-2.159,-2.136,0.023,2.147,-1.091,-1.056,-1.467,-1.085,-1.780,-1.470,-0.591,-0.509,-0.164,-0.006,0.063
'0:00.048',-2.154,-2.134,0.021,2.144,-1.087,-1.056,-1.466,-1.085,-1.780,-1.468,-0.588,-0.508,-0.163,-0.007,0.065
'0:00.049',-2.153,-2.132,0.021,2.143,-1.087,-1.056,-1.469,-1.089,-1.786,-1.471,-0.590,-0.508,-0.164,-0.008,0.068
'0:00.050',-2.156,-2.134,0.022,2.145,-1.089,-1.056,-1.470,-1.090,-1.787,-1.474,-0.593,-0.511,-0.167,-0.009,0.067
'0:00.051',-2.158,-2.137,0.021,2.147,-1.089,-1.058,-1.466,-1.088,-1.786,-1.474,-0.595,-0.513,-0.171,-0.013,0.066
'0:00.052',-2.166,-2.146,0.020,2.156,-1.093,-1.062,-1.466,-1.091,-1.787,-1.478,-0.598,-0.517,-0.175,-0.015,0.065
'0:00.053',-2.171,-2.151,0.019,2.161,-1.095,-1.066,-1.464,-1.089,-1.788,-1.480,-0.599,-0.518,-0.178,-0.018,0.064
'0:00.054',-2.170,-2.156,0.013,2.163,-1.092,-1.071,-1.462,-1.087,-1.788,-1.479,-0.599,-0.518,-0.180,-0.021,0.062
'0:00.055',-2.176,-2.161,0.015,2.169,-1.096,-1.073,-1.462,-1.087,-1.788,-1.478,-0.598,-0.519,-0.180,-0.022,0.060
'0:00.056',-2.173,-2.156,0.018,2.164,-1.095,-1.069,-1.458,-1.085,-1.788,-1.477,-0.597,-0.517,-0.179,-0.022,0.061
'0:00.057',-2.167,-2.151,0.016,2.159,-1.091,-1.067,-1.458,-1.083,-1.784,-1.475,-0.596,-0.517,-0.180,-0.022,0.060
'0:00.058',-2.170,-2.153,0.017,2.161,-1.093,-1.068,-1.459,-1.083,-1.785,-1.476,-0.598,-0.520,-0.183,-0.022,0.060
'0:00.059',-2.170,-2.155,0.015,2.162,-1.093,-1.069,-1.458,-1.083,-1.785,-1.477,-0.598,-0.521,-0.185,-0.023,0.061
'0:00.060',-2.171,-2.156,0.015,2.163,-1.093,-1.070,-1.458,-1.083,-1.786,-1.478,-0.598,-0.522,-0.186,-0.025,0.060
'0:00.061',-2.176,-2.163,0.013,2.170,-1.095,-1.075,-1.456,-1.085,-1.786,-1.480,-0.598,-0.523,-0.188,-0.028,0.060
'0:00.062',-2.171,-2.162,0.010,2.167,-1.091,-1.075,-1.456,-1.081,-1.782,-1.478,-0.597,-0.521,-0.186,-0.026,0.059
'0:00.063',-2.171,-2.159,0.012,2.164,-1.091,-1.073,-1.456,-1.081,-1.782,-1.476,-0.598,-0.519,-0.186,-0.026,0.059
'0:00.064',-2.174,-2.157,0.017,2.166,-1.095,-1.070,-1.456,-1.085,-1.786,-1.477,-0.599,-0.521,-0.188,-0.024,0.059
'0:00.065',-2.171,-2.154,0.018,2.163,-1.095,-1.068,-1.457,-1.083,-1.786,-1.478,-0.599,-0.520,-0.185,-0.021,0.059
'0:00.066',-2.171,-2.155,0.017,2.163,-1.095,-1.069,-1.458,-1.085,-1.786,-1.480,-0.598,-0.522,-0.186,-0.022,0.058
'0:00.067',-2.172,-2.155,0.017,2.164,-1.095,-1.069,-1.460,-1.085,-1.786,-1.480,-0.598,-0.523,-0.185,-0.022,0.058
'0:00.068',-2.172,-2.158,0.015,2.165,-1.094,-1.071,-1.459,-1.085,-1.787,-1.482,-0.600,-0.523,-0.185,-0.022,0.059
'0:00.069',-2.171,-2.158,0.013,2.164,-1.092,-1.072,-1.458,-1.085,-1.786,-1.482,-0.599,-0.524,-0.186,-0.023,0.058
'0:00.070',-2.167,-2.156,0.011,2.162,-1.090,-1.072,-1.457,-1.083,-1.786,-1.480,-0.598,-0.522,-0.186,-0.025,0.058
'0:00.071',-2.167,-2.155,0.012,2.161,-1.090,-1.071,-1.458,-1.085,-1.787,-1.482,-0.600,-0.524,-0.185,-0.025,0.058
'0:00.072',-2.171,-2.159,0.013,2.166,-1.093,-1.073,-1.462,-1.087,-1.788,-1.484,-0.599,-0.524,-0.184,-0.024,0.058
'0:00.073',-2.172,-2.160,0.012,2.166,-1.093,-1.074,-1.463,-1.086,-1.790,-1.485,-0.599,-0.525,-0.184,-0.025,0.059
'0:00.074',-2.166,-2.154,0.012,2.159,-1.089,-1.071,-1.460,-1.083,-1.787,-1.480,-0.598,-0.524,-0.184,-0.025,0.058
'0:00.075',-2.167,-2.155,0.013,2.160,-1.090,-1.071,-1.460,-1.084,-1.788,-1.480,-0.598,-0.523,-0.186,-0.025,0.058
'0:00.076',-2.165,-2.150,0.015,2.158,-1.091,-1.067,-1.458,-1.083,-1.786,-1.478,-0.599,-0.523,-0.184,-0.022,0.059
'0:00.077',-2.159,-2.142,0.017,2.151,-1.088,-1.062,-1.454,-1.079,-1.782,-1.476,-0.596,-0.520,-0.182,-0.022,0.059
'0:00.078',-2.159,-2.143,0.016,2.151,-1.088,-1.063,-1.454,-1.077,-1.780,-1.474,-0.595,-0.518,-0.182,-0.025,0.059
'0:00.079',-2.160,-2.147,0.013,2.153,-1.087,-1.066,-1.452,-1.077,-1.781,-1.472,-0.594,-0.518,-0.182,-0.024,0.057
'0:00.080',-2.160,-2.146,0.015,2.153,-1.088,-1.065,-1.451,-1.078,-1.780,-1.472,-0.594,-0.517,-0.184,-0.023,0.057
'0:00.081',-2.161,-2.146,0.016,2.153,-1.089,-1.065,-1.450,-1.077,-1.779,-1.470,-0.595,-0.517,-0.184,-0.021,0.056
'0:00.082',-2.159,-2.145,0.013,2.151,-1.086,-1.065,-1.452,-1.077,-1.780,-1.472,-0.595,-0.518,-0.184,-0.024,0.054
'0:00.083',-2.162,-2.146,0.017,2.154,-1.089,-1.065,-1.452,-1.080,-1.781,-1.474,-0.598,-0.520,-0.184,-0.022,0.056
'0:00.084',-2.173,-2.151,0.021,2.162,-1.097,-1.065,-1.458,-1.084,-1.786,-1.476,-0.601,-0.524,-0.186,-0.018,0.058
'0:00.085',-2.175,-2.151,0.024,2.163,-1.099,-1.063,-1.458,-1.084,-1.785,-1.476,-0.600,-0.524,-0.186,-0.018,0.056
'0:00.086',-2.167,-2.147,0.021,2.156,-1.094,-1.062,-1.454,-1.083,-1.782,-1.474,-0.599,-0.521,-0.184,-0.018,0.054
'0:00.087',-2.167,-2.147,0.021,2.158,-1.094,-1.063,-1.454,-1.081,-1.782,-1.477,-0.600,-0.523,-0.186,-0.020,0.054
'0:00.088',-2.170,-2.148,0.022,2.159,-1.097,-1.063,-1.454,-1.081,-1.784,-1.479,-0.605,-0.527,-0.190,-0.018,0.053
'0:00.089',-2.171,-2.150,0.021,2.160,-1.097,-1.064,-1.456,-1.085,-1.786,-1.480,-0.606,-0.526,-0.188,-0.017,0.054
'0:00.090',-2.170,-2.147,0.024,2.158,-1.097,-1.062,-1.457,-1.085,-1.784,-1.480,-0.604,-0.526,-0.189,-0.015,0.052
'0:00.091',-2.164,-2.138,0.026,2.151,-1.095,-1.056,-1.458,-1.085,-1.786,-1.482,-0.606,-0.529,-0.189,-0.013,0.053
'0:00.092',-2.165,-2.136,0.029,2.151,-1.097,-1.054,-1.458,-1.085,-1.786,-1.484,-0.606,-0.531,-0.190,-0.013,0.054
'0:00.093',-2.167,-2.138,0.029,2.153,-1.099,-1.054,-1.456,-1.085,-1.786,-1.484,-0.607,-0.533,-0.192,-0.013,0.053
'0:00.094',-2.167,-2.139,0.028,2.152,-1.097,-1.056,-1.455,-1.083,-1.784,-1.484,-0.607,-0.534,-0.193,-0.013,0.051
'0:00.095',-2.167,-2.141,0.026,2.154,-1.097,-1.057,-1.456,-1.083,-1.784,-1.482,-0.607,-0.535,-0.194,-0.015,0.051
'0:00.096',-2.165,-2.138,0.028,2.151,-1.097,-1.055,-1.455,-1.080,-1.783,-1.480,-0.608,-0.535,-0.195,-0.015,0.051
'0:00.097',-2.163,-2.134,0.029,2.148,-1.097,-1.052,-1.452,-1.078,-1.780,-1.477,-0.606,-0.536,-0.196,-0.013,0.050
'0:00.098',-2.164,-2.134,0.030,2.149,-1.097,-1.052,-1.453,-1.079,-1.782,-1.477,-0.605,-0.536,-0.196,-0.013,0.051
'0:00.099',-2.163,-2.135,0.028,2.149,-1.095,-1.054,-1.452,-1.077,-1.778,-1.474,-0.603,-0.535,-0.196,-0.013,0.049
'0:00.100',-2.164,-2.138,0.026,2.151,-1.096,-1.056,-1.452,-1.077,-1.776,-1.472,-0.600,-0.533,-0.191,-0.016,0.051
'0:00.101',-2.175,-2.146,0.029,2.160,-1.103,-1.058,-1.456,-1.077,-1.779,-1.474,-0.601,-0.533,-0.191,-0.017,0.051
'0:00.102',-2.175,-2.145,0.030,2.160,-1.103,-1.057,-1.454,-1.076,-1.778,-1.473,-0.602,-0.535,-0.193,-0.016,0.049
'0:00.103',-2.175,-2.143,0.032,2.159,-1.103,-1.056,-1.452,-1.077,-1.780,-1.474,-0.604,-0.535,-0.192,-0.015,0.050
'0:00.104',-2.178,-2.142,0.036,2.159,-1.107,-1.052,-1.454,-1.081,-1.782,-1.477,-0.605,-0.536,-0.192,-0.013,0.051
'0:00.105',-2.171,-2.132,0.039,2.152,-1.105,-1.046,-1.456,-1.079,-1.780,-1.474,-0.603,-0.534,-0.189,-0.009,0.051
'0:00.106',-2.170,-2.131,0.038,2.151,-1.104,-1.046,-1.459,-1.079,-1.778,-1.474,-0.601,-0.532,-0.186,-0.008,0.049
'0:00.107',-2.173,-2.136,0.037,2.155,-1.105,-1.050,-1.458,-1.080,-1.779,-1.475,-0.602,-0.534,-0.190,-0.007,0.048
'0:00.108',-2.174,-2.141,0.033,2.158,-1.103,-1.054,-1.460,-1.081,-1.780,-1.478,-0.605,-0.538,-0.191,-0.009,0.049
'0:00.109',-2.176,-2.144,0.031,2.160,-1.103,-1.056,-1.460,-1.081,-1.782,-1.480,-0.606,-0.538,-0.191,-0.009,0.048
'0:00.110',-2.175,-2.143,0.033,2.159,-1.105,-1.055,-1.460,-1.081,-1.782,-1.479,-0.606,-0.537,-0.192,-0.007,0.045
'0:00.111',-2.171,-2.141,0.030,2.156,-1.101,-1.055,-1.462,-1.080,-1.780,-1.478,-0.606,-0.535,-0.189,-0.009,0.046
'0:00.112',-2.169,-2.138,0.032,2.154,-1.101,-1.052,-1.462,-1.082,-1.781,-1.475,-0.602,-0.532,-0.188,-0.007,0.046
'0:00.113',-2.165,-2.135,0.029,2.151,-1.097,-1.052,-1.462,-1.081,-1.780,-1.474,-0.600,-0.530,-0.185,-0.009,0.045
'0:00.114',-2.163,-2.138,0.025,2.150,-1.094,-1.056,-1.460,-1.077,-1.775,-1.470,-0.598,-0.527,-0.184,-0.009,0.044
'0:00.115',-2.163,-2.139,0.025,2.151,-1.095,-1.057,-1.463,-1.077,-1.774,-1.470,-0.598,-0.526,-0.184,-0.010,0.045
'0:00.116',-2.163,-2.137,0.026,2.150,-1.095,-1.056,-1.459,-1.077,-1.774,-1.470,-0.599,-0.524,-0.182,-0.009,0.046
'0:00.117',-2.162,-2.135,0.028,2.148,-1.095,-1.054,-1.456,-1.073,-1.772,-1.466,-0.594,-0.520,-0.182,-0.009,0.045
'0:00.118',-2.161,-2.134,0.028,2.147,-1.095,-1.052,-1.459,-1.073,-1.772,-1.466,-0.594,-0.520,-0.183,-0.011,0.045
'0:00.119',-2.160,-2.133,0.027,2.147,-1.093,-1.052,-1.454,-1.071,-1.770,-1.464,-0.592,-0.518,-0.180,-0.009,0.044
'0:00.120',-2.160,-2.134,0.026,2.147,-1.093,-1.053,-1.452,-1.069,-1.768,-1.464,-0.591,-0.518,-0.181,-0.011,0.044
'0:00.121',-2.165,-2.138,0.028,2.151,-1.097,-1.055,-1.452,-1.069,-1.766,-1.464,-0.593,-0.520,-0.185,-0.012,0.043
'0:00.122',-2.166,-2.138,0.028,2.152,-1.097,-1.054,-1.452,-1.067,-1.766,-1.462,-0.593,-0.518,-0.184,-0.013,0.043
'0:00.123',-2.167,-2.139,0.028,2.153,-1.097,-1.056,-1.452,-1.069,-1.769,-1.464,-0.593,-0.518,-0.183,-0.013,0.044
'0:00.124',-2.175,-2.143,0.033,2.159,-1.104,-1.055,-1.455,-1.073,-1.770,-1.465,-0.594,-0.518,-0.183,-0.011,0.044
'0:00.125',-2.175,-2.139,0.035,2.157,-1.105,-1.052,-1.456,-1.073,-1.770,-1.466,-0.594,-0.518,-0.184,-0.009,0.043
'0:00.126',-2.172,-2.138,0.035,2.155,-1.103,-1.052,-1.456,-1.075,-1.771,-1.467,-0.594,-0.520,-0.183,-0.008,0.043
'0:00.127',-2.175,-2.142,0.034,2.159,-1.105,-1.054,-1.458,-1.075,-1.772,-1.467,-0.594,-0.521,-0.183,-0.008,0.042
'0:00.128',-2.170,-2.139,0.030,2.154,-1.100,-1.054,-1.456,-1.074,-1.771,-1.469,-0.595,-0.521,-0.184,-0.007,0.043
'0:00.129',-2.169,-2.136,0.033,2.152,-1.101,-1.052,-1.458,-1.077,-1.774,-1.468,-0.592,-0.521,-0.184,-0.004,0.044
'0:00.130',-2.172,-2.137,0.035,2.155,-1.104,-1.050,-1.460,-1.075,-1.774,-1.468,-0.590,-0.520,-0.183,-0.004,0.043
'0:00.131',-2.168,-2.132,0.036,2.151,-1.103,-1.048,-1.460,-1.073,-1.772,-1.468,-0.591,-0.520,-0.181,-0.003,0.045
'0:00.132',-2.170,-2.132,0.037,2.151,-1.104,-1.048,-1.462,-1.075,-1.773,-1.468,-0.589,-0.522,-0.181,-0.003,0.046
'0:00.133',-2.167,-2.131,0.037,2.149,-1.103,-1.046,-1.464,-1.076,-1.774,-1.466,-0.587,-0.520,-0.180,-0.002,0.045
'0:00.134',-2.164,-2.130,0.035,2.147,-1.100,-1.048,-1.462,-1.073,-1.770,-1.463,-0.585,-0.517,-0.178,-0.003,0.043
'0:00.135',-2.163,-2.131,0.033,2.147,-1.099,-1.049,-1.462,-1.073,-1.767,-1.464,-0.587,-0.520,-0.180,-0.004,0.042
'0:00.136',-2.167,-2.135,0.033,2.151,-1.101,-1.050,-1.460,-1.071,-1.766,-1.465,-0.588,-0.523,-0.183,-0.005,0.041
'0:00.137',-2.175,-2.140,0.035,2.158,-1.106,-1.052,-1.454,-1.065,-1.760,-1.460,-0.590,-0.528,-0.188,-0.007,0.035
'0:00.138',-2.179,-2.144,0.035,2.162,-1.107,-1.054,-1.448,-1.058,-1.754,-1.458,-0.593,-0.533,-0.194,-0.008,0.029
'0:00.139',-2.186,-2.153,0.033,2.170,-1.109,-1.060,-1.440,-1.048,-1.746,-1.455,-0.594,-0.539,-0.198,-0.013,0.024
'0:00.140',-2.195,-2.163,0.032,2.179,-1.113,-1.065,-1.429,-1.033,-1.733,-1.447,-0.599,-0.549,-0.204,-0.019,0.013
'0:00.141',-2.203,-2.175,0.027,2.189,-1.115,-1.074,-1.413,-1.014,-1.714,-1.440,-0.603,-0.563,-0.216,-0.024,-0.004
'0:00.142',-2.212,-2.188,0.022,2.200,-1.117,-1.083,-1.389,-0.984,-1.690,-1.433,-0.614,-0.582,-0.234,-0.033,-0.022
'0:00.143',-2.215,-2.199,0.015,2.207,-1.115,-1.091,-1.368,-0.955,-1.667,-1.427,-0.627,-0.601,-0.254,-0.041,-0.042
'0:00.144',-2.216,-2.212,0.004,2.213,-1.110,-1.103,-1.354,-0.928,-1.648,-1.424,-0.642,-0.623,-0.273,-0.054,-0.058
'0:00.145',-2.219,-2.227,-0.009,2.223,-1.105,-1.117,-1.333,-0.897,-1.627,-1.423,-0.662,-0.648,-0.294,-0.070,-0.076
'0:00.146',-2.220,-2.235,-0.014,2.228,-1.103,-1.124,-1.321,-0.876,-1.611,-1.421,-0.676,-0.665,-0.307,-0.075,-0.091
'0:00.147',-2.225,-2.243,-0.017,2.234,-1.105,-1.129,-1.308,-0.851,-1.587,-1.409,-0.678,-0.676,-0.317,-0.079,-0.108
'0:00.148',-2.222,-2.247,-0.025,2.235,-1.099,-1.135,-1.291,-0.817,-1.548,-1.384,-0.669,-0.679,-0.317,-0.085,-0.131
'0:00.149',-2.220,-2.248,-0.029,2.233,-1.095,-1.138,-1.278,-0.787,-1.520,-1.367,-0.667,-0.685,-0.319,-0.088,-0.146
'0:00.150',-2.221,-2.249,-0.029,2.235,-1.097,-1.139,-1.270,-0.763,-1.491,-1.348,-0.662,-0.687,-0.319,-0.087,-0.161
'0:00.151',-2.211,-2.245,-0.035,2.228,-1.089,-1.140,-1.261,-0.730,-1.450,-1.312,-0.643,-0.677,-0.308,-0.090,-0.179
'0:00.152',-2.200,-2.247,-0.046,2.224,-1.077,-1.146,-1.254,-0.691,-1.409,-1.276,-0.624,-0.666,-0.292,-0.094,-0.196
'0:00.153',-2.187,-2.243,-0.056,2.215,-1.066,-1.149,-1.256,-0.664,-1.372,-1.240,-0.593,-0.644,-0.264,-0.093,-0.208
'0:00.154',-2.162,-2.239,-0.077,2.200,-1.043,-1.157,-1.246,-0.618,-1.312,-1.178,-0.543,-0.609,-0.226,-0.099,-0.233
'0:00.155',-2.137,-2.244,-0.106,2.191,-1.016,-1.175,-1.232,-0.561,-1.242,-1.117,-0.499,-0.580,-0.192,-0.112,-0.262
'0:00.156',-2.119,-2.237,-0.118,2.178,-1.001,-1.177,-1.230,-0.522,-1.190,-1.065,-0.457,-0.547,-0.154,-0.113,-0.283
'0:00.157',-2.102,-2.216,-0.114,2.159,-0.995,-1.165,-1.234,-0.498,-1.149,-1.010,-0.407,-0.507,-0.112,-0.103,-0.298
'0:00.158',-2.086,-2.188,-0.102,2.138,-0.992,-1.145,-1.238,-0.488,-1.122,-0.969,-0.358,-0.465,-0.072,-0.086,-0.312
'0:00.159',-2.067,-2.160,-0.093,2.114,-0.987,-1.127,-1.250,-0.479,-1.089,-0.905,-0.286,-0.405,-0.013,-0.066,-0.327
'0:00.160',-2.033,-2.129,-0.096,2.081,-0.969,-1.112,-1.271,-0.482,-1.075,-0.855,-0.210,-0.334,0.056,-0.051,-0.327
'0:00.161',-2.010,-2.108,-0.098,2.059,-0.957,-1.103,-1.298,-0.517,-1.100,-0.841,-0.157,-0.270,0.115,-0.041,-0.307
'0:00.162',-1.986,-2.081,-0.096,2.033,-0.945,-1.088,-1.329,-0.563,-1.145,-0.842,-0.114,-0.212,0.171,-0.028,-0.279
'0:00.163',-1.952,-2.033,-0.082,1.992,-0.935,-1.057,-1.367,-0.623,-1.205,-0.859,-0.068,-0.143,0.234,-0.002,-0.241
'0:00.164',-1.933,-1.978,-0.045,1.955,-0.944,-1.012,-1.419,-0.709,-1.272,-0.859,-0.009,-0.069,0.301,0.038,-0.202
'0:00.165',-1.898,-1.897,0.001,1.897,-0.950,-0.948,-1.483,-0.795,-1.332,-0.850,0.064,0.023,0.386,0.096,-0.158
'0:00.166',-1.851,-1.825,0.026,1.838,-0.939,-0.899,-1.539,-0.859,-1.371,-0.826,0.153,0.133,0.486,0.141,-0.123
'0:00.167',-1.829,-1.758,0.070,1.794,-0.950,-0.844,-1.603,-0.965,-1.472,-0.860,0.201,0.212,0.555,0.191,-0.064
'0:00.168',-1.822,-1.671,0.151,1.746,-0.987,-0.759,-1.692,-1.137,-1.653,-0.959,0.220,0.285,0.611,0.265,0.036
'0:00.169',-1.802,-1.587,0.214,1.694,-1.008,-0.686,-1.780,-1.295,-1.810,-1.012,0.292,0.398,0.702,0.329,0.128
'0:00.170',-1.784,-1.488,0.297,1.636,-1.041,-0.595,-1.867,-1.450,-1.964,-1.063,0.367,0.507,0.790,0.406,0.214
'0:00.171',-1.786,-1.417,0.370,1.601,-1.079,-0.523,-1.935,-1.601,-2.115,-1.134,0.403,0.568,0.832,0.465,0.296
'0:00.172',-1.792,-1.393,0.399,1.593,-1.095,-0.497,-1.992,-1.726,-2.244,-1.185,0.445,0.628,0.874,0.485,0.366
'0:00.173',-1.789,-1.373,0.415,1.581,-1.103,-0.478,-2.042,-1.817,-2.330,-1.189,0.522,0.709,0.941,0.500,0.417
'0:00.174',-1.776,-1.346,0.429,1.561,-1.103,-0.458,-2.079,-1.883,-2.392,-1.191,0.598,0.788,1.005,0.520,0.458
'0:00.175',-1.776,-1.335,0.440,1.556,-1.108,-0.448,-2.092,-1.922,-2.441,-1.208,0.642,0.843,1.042,0.525,0.486
'0:00.176',-1.789,-1.354,0.435,1.571,-1.112,-0.459,-2.083,-1.921,-2.438,-1.180,0.697,0.885,1.069,0.512,0.487
'0:00.177',-1.810,-1.363,0.447,1.587,-1.129,-0.458,-2.079,-1.935,-2.445,-1.163,0.736,0.914,1.085,0.517,0.492
'0:00.178',-1.843,-1.398,0.445,1.620,-1.143,-0.476,-2.057,-1.942,-2.474,-1.212,0.685,0.869,1.034,0.498,0.503
'0:00.179',-1.885,-1.463,0.422,1.674,-1.153,-0.520,-2.022,-1.937,-2.503,-1.284,0.596,0.790,0.947,0.462,0.514
'0:00.180',-1.927,-1.565,0.362,1.746,-1.145,-0.602,-1.969,-1.911,-2.506,-1.326,0.527,0.713,0.859,0.398,0.509
'0:00.181',-1.964,-1.722,0.242,1.843,-1.103,-0.740,-1.893,-1.851,-2.485,-1.373,0.409,0.592,0.735,0.286,0.499
'0:00.182',-2.005,-1.824,0.181,1.915,-1.093,-0.822,-1.844,-1.828,-2.505,-1.466,0.253,0.457,0.600,0.220,0.508
'0:00.183',-2.068,-1.877,0.191,1.973,-1.130,-0.843,-1.813,-1.856,-2.594,-1.655,0.023,0.282,0.428,0.196,0.545
'0:00.184',-2.143,-1.923,0.220,2.034,-1.181,-0.852,-1.792,-1.915,-2.745,-1.951,-0.307,0.058,0.208,0.177,0.613
'0:00.185',-2.219,-1.965,0.254,2.092,-1.236,-0.856,-1.766,-1.969,-2.898,-2.262,-0.681,-0.203,-0.045,0.167,0.677
'0:00.186',-2.296,-2.023,0.273,2.159,-1.285,-0.875,-1.722,-1.983,-2.987,-2.488,-1.021,-0.470,-0.293,0.144,0.709
'0:00.187',-2.346,-2.071,0.275,2.209,-1.310,-0.898,-1.687,-1.976,-3.021,-2.614,-1.254,-0.671,-0.472,0.119,0.719
'0:00.188',-2.372,-2.115,0.257,2.244,-1.315,-0.929,-1.659,-1.951,-3.014,-2.666,-1.394,-0.805,-0.587,0.093,0.711
'0:00.189',-2.374,-2.156,0.218,2.265,-1.296,-0.969,-1.641,-1.913,-2.974,-2.645,-1.414,-0.845,-0.612,0.060,0.694
'0:00.190',-2.368,-2.196,0.172,2.282,-1.270,-1.012,-1.628,-1.877,-2.929,-2.606,-1.397,-0.854,-0.612,0.025,0.675
'0:00.191',-2.365,-2.233,0.132,2.300,-1.249,-1.050,-1.599,-1.833,-2.878,-2.569,-1.387,-0.875,-0.630,-0.011,0.646
'0:00.192',-2.367,-2.271,0.096,2.319,-1.232,-1.087,-1.571,-1.784,-2.820,-2.509,-1.349,-0.879,-0.631,-0.043,0.611
'0:00.193',-2.370,-2.308,0.062,2.339,-1.216,-1.123,-1.542,-1.726,-2.744,-2.430,-1.297,-0.875,-0.623,-0.070,0.567
'0:00.194',-2.372,-2.337,0.035,2.354,-1.204,-1.151,-1.518,-1.674,-2.679,-2.366,-1.254,-0.873,-0.617,-0.096,0.529
'0:00.195',-2.377,-2.365,0.012,2.370,-1.194,-1.176,-1.500,-1.643,-2.636,-2.316,-1.225,-0.878,-0.619,-0.119,0.505
'0:00.196',-2.377,-2.372,0.005,2.374,-1.192,-1.183,-1.492,-1.619,-2.599,-2.273,-1.196,-0.877,-0.612,-0.129,0.489
'0:00.197',-2.375,-2.361,0.014,2.368,-1.194,-1.173,-1.494,-1.595,-2.561,-2.233,-1.162,-0.860,-0.588,-0.119,0.473
'0:00.198',-2.363,-2.347,0.016,2.355,-1.190,-1.165,-1.492,-1.563,-2.511,-2.180,-1.120,-0.834,-0.557,-0.112,0.448
'0:00.199',-2.345,-2.330,0.015,2.337,-1.180,-1.157,-1.486,-1.520,-2.450,-2.118,-1.071,-0.807,-0.525,-0.106,0.417
'0:00.200',-2.334,-2.311,0.023,2.322,-1.179,-1.144,-1.480,-1.483,-2.389,-2.057,-1.024,-0.777,-0.493,-0.095,0.384
'0:00.201',-2.328,-2.293,0.035,2.311,-1.181,-1.129,-1.479,-1.454,-2.341,-2.007,-0.984,-0.753,-0.469,-0.081,0.354
'0:00.202',-2.312,-2.272,0.039,2.292,-1.175,-1.117,-1.479,-1.417,-2.283,-1.950,-0.940,-0.727,-0.440,-0.070,0.323
'0:00.203',-2.288,-2.249,0.040,2.269,-1.165,-1.105,-1.482,-1.379,-2.222,-1.890,-0.892,-0.695,-0.402,-0.062,0.294
'0:00.204',-2.269,-2.229,0.040,2.249,-1.155,-1.095,-1.484,-1.340,-2.167,-1.834,-0.849,-0.667,-0.362,-0.054,0.271
'0:00.205',-2.250,-2.204,0.045,2.227,-1.148,-1.079,-1.476,-1.298,-2.109,-1.780,-0.810,-0.639,-0.329,-0.043,0.242
'0:00.206',-2.233,-2.186,0.048,2.209,-1.141,-1.069,-1.467,-1.262,-2.061,-1.737,-0.779,-0.616,-0.302,-0.033,0.217
'0:00.207',-2.221,-2.177,0.044,2.199,-1.133,-1.067,-1.464,-1.232,-2.024,-1.704,-0.753,-0.600,-0.281,-0.030,0.199
'0:00.208',-2.207,-2.170,0.037,2.188,-1.122,-1.066,-1.462,-1.206,-1.988,-1.673,-0.730,-0.586,-0.260,-0.029,0.182
'0:00.209',-2.194,-2.163,0.031,2.179,-1.113,-1.065,-1.458,-1.178,-1.954,-1.643,-0.707,-0.572,-0.240,-0.028,0.166
'0:00.210',-2.188,-2.158,0.030,2.174,-1.109,-1.064,-1.453,-1.157,-1.925,-1.618,-0.691,-0.563,-0.226,-0.025,0.150
'0:00.211',-2.183,-2.157,0.026,2.171,-1.105,-1.065,-1.444,-1.135,-1.899,-1.596,-0.677,-0.556,-0.216,-0.025,0.133
'0:00.212',-2.183,-2.153,0.029,2.168,-1.107,-1.062,-1.440,-1.116,-1.873,-1.574,-0.663,-0.549,-0.205,-0.018,0.117
'0:00.213',-2.184,-2.149,0.035,2.167,-1.110,-1.056,-1.437,-1.103,-1.853,-1.556,-0.651,-0.541,-0.199,-0.009,0.102
'0:00.214',-2.175,-2.136,0.039,2.155,-1.107,-1.048,-1.435,-1.087,-1.831,-1.536,-0.636,-0.532,-0.192,-0.002,0.088
'0:00.215',-2.169,-2.123,0.045,2.147,-1.108,-1.038,-1.435,-1.077,-1.815,-1.522,-0.627,-0.526,-0.185,0.006,0.081
'0:00.216',-2.167,-2.118,0.050,2.142,-1.108,-1.034,-1.431,-1.065,-1.803,-1.512,-0.622,-0.523,-0.183,0.009,0.074
'0:00.217',-2.168,-2.113,0.056,2.140,-1.112,-1.028,-1.433,-1.061,-1.794,-1.503,-0.618,-0.523,-0.181,0.014,0.070
'0:00.218',-2.171,-2.106,0.065,2.139,-1.118,-1.020,-1.439,-1.062,-1.790,-1.498,-0.614,-0.521,-0.178,0.022,0.066
'0:00.219',-2.164,-2.098,0.067,2.131,-1.116,-1.015,-1.444,-1.058,-1.778,-1.488,-0.607,-0.517,-0.174,0.027,0.062
'0:00.220',-2.159,-2.093,0.066,2.126,-1.113,-1.014,-1.447,-1.052,-1.770,-1.478,-0.599,-0.513,-0.171,0.028,0.058
'0:00.221',-2.157,-2.088,0.068,2.123,-1.113,-1.010,-1.449,-1.049,-1.763,-1.472,-0.594,-0.509,-0.168,0.028,0.054
'0:00.222',-2.155,-2.085,0.070,2.120,-1.113,-1.008,-1.452,-1.049,-1.754,-1.465,-0.589,-0.504,-0.165,0.032,0.050
'0:00.223',-2.154,-2.086,0.069,2.120,-1.111,-1.008,-1.456,-1.048,-1.755,-1.464,-0.587,-0.505,-0.165,0.034,0.049
'0:00.224',-2.163,-2.092,0.071,2.127,-1.117,-1.010,-1.458,-1.052,-1.758,-1.466,-0.590,-0.509,-0.166,0.033,0.050
'0:00.225',-2.167,-2.095,0.070,2.131,-1.119,-1.012,-1.458,-1.050,-1.754,-1.465,-0.589,-0.507,-0.165,0.032,0.047
'0:00.226',-2.164,-2.095,0.069,2.130,-1.117,-1.013,-1.458,-1.046,-1.748,-1.460,-0.587,-0.507,-0.165,0.031,0.043
'0:00.227',-2.162,-2.098,0.064,2.130,-1.113,-1.016,-1.454,-1.044,-1.744,-1.459,-0.589,-0.508,-0.165,0.029,0.040
'0:00.228',-2.158,-2.099,0.060,2.128,-1.109,-1.019,-1.452,-1.040,-1.740,-1.458,-0.588,-0.507,-0.168,0.026,0.037
'0:00.229',-2.157,-2.097,0.059,2.127,-1.109,-1.018,-1.452,-1.039,-1.738,-1.456,-0.585,-0.506,-0.168,0.026,0.036
'0:00.230',-2.153,-2.094,0.059,2.123,-1.107,-1.017,-1.450,-1.038,-1.736,-1.452,-0.581,-0.505,-0.167,0.026,0.035
'0:00.231',-2.147,-2.087,0.060,2.116,-1.103,-1.013,-1.449,-1.035,-1.730,-1.446,-0.577,-0.503,-0.166,0.027,0.032
'0:00.232',-2.147,-2.087,0.060,2.117,-1.104,-1.013,-1.451,-1.034,-1.728,-1.446,-0.579,-0.504,-0.169,0.026,0.031
'0:00.233',-2.150,-2.095,0.055,2.123,-1.103,-1.020,-1.448,-1.030,-1.726,-1.445,-0.579,-0.506,-0.170,0.023,0.029
'0:00.234',-2.146,-2.098,0.048,2.122,-1.097,-1.024,-1.446,-1.026,-1.722,-1.440,-0.577,-0.506,-0.170,0.018,0.025
'0:00.235',-2.152,-2.103,0.049,2.128,-1.101,-1.026,-1.447,-1.026,-1.720,-1.439,-0.576,-0.507,-0.169,0.018,0.024
'0:00.236',-2.159,-2.110,0.049,2.134,-1.104,-1.030,-1.448,-1.027,-1.719,-1.438,-0.576,-0.509,-0.169,0.018,0.024
'0:00.237',-2.158,-2.107,0.051,2.132,-1.105,-1.028,-1.448,-1.027,-1.718,-1.437,-0.577,-0.511,-0.169,0.019,0.022
'0:00.238',-2.159,-2.104,0.054,2.131,-1.107,-1.025,-1.448,-1.024,-1.716,-1.435,-0.575,-0.509,-0.168,0.019,0.022
'0:00.239',-2.159,-2.103,0.056,2.131,-1.107,-1.024,-1.444,-1.020,-1.713,-1.431,-0.571,-0.507,-0.167,0.019,0.021
'0:00.240',-2.163,-2.106,0.058,2.135,-1.111,-1.024,-1.443,-1.020,-1.710,-1.426,-0.568,-0.506,-0.166,0.021,0.018
'0:00.241',-2.170,-2.114,0.056,2.142,-1.113,-1.029,-1.448,-1.022,-1.711,-1.427,-0.567,-0.504,-0.163,0.021,0.018
'0:00.242',-2.168,-2.114,0.054,2.142,-1.112,-1.030,-1.448,-1.020,-1.710,-1.425,-0.567,-0.504,-0.163,0.021,0.019
'0:00.243',-2.162,-2.106,0.056,2.134,-1.109,-1.024,-1.446,-1.018,-1.706,-1.421,-0.563,-0.502,-0.163,0.021,0.017
'0:00.244',-2.160,-2.102,0.058,2.131,-1.109,-1.022,-1.446,-1.019,-1.706,-1.421,-0.564,-0.502,-0.163,0.022,0.017
'0:00.245',-2.160,-2.101,0.059,2.131,-1.109,-1.021,-1.446,-1.018,-1.702,-1.421,-0.563,-0.502,-0.162,0.024,0.017
'0:00.246',-2.160,-2.102,0.058,2.131,-1.109,-1.022,-1.446,-1.016,-1.702,-1.420,-0.561,-0.499,-0.161,0.025,0.015
'0:00.247',-2.159,-2.103,0.056,2.131,-1.107,-1.024,-1.450,-1.017,-1.704,-1.421,-0.560,-0.500,-0.161,0.025,0.015
'0:00.248',-2.156,-2.103,0.054,2.130,-1.105,-1.024,-1.450,-1.016,-1.702,-1.421,-0.558,-0.499,-0.161,0.024,0.014
'0:00.249',-2.155,-2.103,0.052,2.129,-1.104,-1.024,-1.444,-1.013,-1.700,-1.419,-0.557,-0.497,-0.160,0.022,0.013
'0:00.250',-2.153,-2.103,0.051,2.127,-1.102,-1.026,-1.446,-1.012,-1.700,-1.415,-0.554,-0.495,-0.158,0.021,0.015
'0:00.251',-2.152,-2.100,0.052,2.126,-1.103,-1.024,-1.443,-1.010,-1.698,-1.413,-0.551,-0.492,-0.156,0.022,0.015
'0:00.252',-2.155,-2.103,0.051,2.129,-1.103,-1.026,-1.442,-1.008,-1.696,-1.413,-0.552,-0.494,-0.156,0.021,0.013
'0:00.253',-2.157,-2.107,0.050,2.132,-1.103,-1.028,-1.446,-1.011,-1.696,-1.414,-0.553,-0.495,-0.157,0.021,0.014
'0:00.254',-2.156,-2.106,0.051,2.131,-1.104,-1.027,-1.446,-1.012,-1.699,-1.409,-0.551,-0.495,-0.157,0.020,0.011
'0:00.255',-2.159,-2.106,0.053,2.133,-1.107,-1.026,-1.444,-1.010,-1.696,-1.411,-0.550,-0.495,-0.155,0.021,0.010
'0:00.256',-2.156,-2.103,0.053,2.130,-1.105,-1.024,-1.442,-1.008,-1.693,-1.409,-0.547,-0.490,-0.152,0.023,0.012
'0:00.257',-2.151,-2.097,0.054,2.124,-1.103,-1.021,-1.441,-1.008,-1.692,-1.405,-0.544,-0.487,-0.150,0.023,0.009
'0:00.258',-2.155,-2.095,0.059,2.124,-1.107,-1.018,-1.443,-1.006,-1.690,-1.403,-0.543,-0.486,-0.150,0.026,0.011
'0:00.259',-2.151,-2.094,0.058,2.123,-1.105,-1.018,-1.440,-1.002,-1.688,-1.400,-0.541,-0.485,-0.150,0.025,0.009
'0:00.260',-2.148,-2.091,0.058,2.120,-1.103,-1.016,-1.440,-1.002,-1.685,-1.400,-0.541,-0.486,-0.149,0.025,0.008
'0:00.261',-2.154,-2.095,0.058,2.124,-1.106,-1.018,-1.438,-1.001,-1.683,-1.397,-0.540,-0.486,-0.149,0.025,0.007
'0:00.262',-2.150,-2.095,0.056,2.122,-1.103,-1.019,-1.435,-0.998,-1.681,-1.398,-0.541,-0.486,-0.151,0.024,0.005
'0:00.263',-2.143,-2.086,0.057,2.115,-1.101,-1.014,-1.436,-0.997,-1.679,-1.397,-0.541,-0.487,-0.152,0.026,0.007
'0:00.264',-2.144,-2.084,0.060,2.114,-1.103,-1.012,-1.440,-1.000,-1.681,-1.397,-0.542,-0.488,-0.151,0.026,0.008
'0:00.265',-2.147,-2.088,0.059,2.118,-1.103,-1.014,-1.442,-1.000,-1.682,-1.399,-0.543,-0.488,-0.150,0.026,0.007
'0:00.266',-2.154,-2.094,0.059,2.123,-1.107,-1.018,-1.443,-1.000,-1.681,-1.397,-0.544,-0.491,-0.152,0.027,0.004
'0:00.267',-2.159,-2.098,0.060,2.128,-1.109,-1.018,-1.444,-1.004,-1.683,-1.401,-0.547,-0.493,-0.153,0.028,0.004
'0:00.268',-2.160,-2.099,0.061,2.130,-1.111,-1.018,-1.445,-1.006,-1.685,-1.403,-0.547,-0.493,-0.153,0.029,0.004
'0:00.269',-2.156,-2.094,0.062,2.125,-1.109,-1.016,-1.446,-1.005,-1.685,-1.403,-0.547,-0.492,-0.151,0.032,0.004
'0:00.270',-2.152,-2.091,0.060,2.122,-1.107,-1.015,-1.444,-1.004,-1.683,-1.401,-0.545,-0.489,-0.149,0.032,0.005
'0:00.271',-2.146,-2.086,0.059,2.115,-1.103,-1.013,-1.446,-1.004,-1.681,-1.398,-0.544,-0.487,-0.147,0.032,0.004
'0:00.272',-2.147,-2.087,0.059,2.117,-1.103,-1.014,-1.448,-1.003,-1.680,-1.397,-0.543,-0.487,-0.145,0.030,0.005
'0:00.273',-2.149,-2.090,0.060,2.119,-1.105,-1.014,-1.448,-1.004,-1.681,-1.398,-0.545,-0.488,-0.145,0.032,0.005
'0:00.274',-2.146,-2.090,0.056,2.118,-1.101,-1.016,-1.448,-0.999,-1.679,-1.397,-0.544,-0.486,-0.145,0.031,0.004
'0:00.275',-2.151,-2.096,0.054,2.123,-1.103,-1.020,-1.448,-1.001,-1.679,-1.394,-0.542,-0.485,-0.144,0.029,0.004
'0:00.276',-2.156,-2.103,0.052,2.130,-1.105,-1.026,-1.448,-1.002,-1.681,-1.395,-0.543,-0.486,-0.144,0.027,0.004
'0:00.277',-2.153,-2.104,0.049,2.128,-1.101,-1.028,-1.442,-0.998,-1.677,-1.392,-0.541,-0.484,-0.143,0.024,0.004
'0:00.278',-2.154,-2.104,0.050,2.129,-1.103,-1.026,-1.444,-0.996,-1.675,-1.388,-0.542,-0.483,-0.141,0.024,0.004
'0:00.279',-2.154,-2.103,0.050,2.129,-1.103,-1.026,-1.440,-0.992,-1.671,-1.387,-0.540,-0.481,-0.142,0.022,0.003
'0:00.280',-2.151,-2.101,0.050,2.126,-1.101,-1.025,-1.440,-0.992,-1.671,-1.387,-0.539,-0.481,-0.143,0.022,0.003
'0:00.281',-2.156,-2.104,0.051,2.130,-1.103,-1.026,-1.443,-0.991,-1.671,-1.387,-0.539,-0.481,-0.142,0.022,0.004
'0:00.282',-2.152,-2.104,0.048,2.128,-1.101,-1.028,-1.438,-0.989,-1.667,-1.386,-0.537,-0.479,-0.141,0.021,0.004
'0:00.283',-2.151,-2.101,0.050,2.126,-1.101,-1.026,-1.436,-0.989,-1.666,-1.386,-0.538,-0.479,-0.141,0.022,0.004
'0:00.284',-2.157,-2.104,0.052,2.131,-1.105,-1.026,-1.440,-0.990,-1.667,-1.385,-0.537,-0.479,-0.140,0.023,0.004
'0:00.285',-2.155,-2.102,0.053,2.128,-1.105,-1.024,-1.441,-0.990,-1.669,-1.387,-0.538,-0.480,-0.140,0.023,0.006
'0:00.286',-2.152,-2.099,0.054,2.126,-1.103,-1.022,-1.442,-0.991,-1.671,-1.387,-0.540,-0.483,-0.141,0.025,0.006
'0:00.287',-2.155,-2.102,0.052,2.128,-1.104,-1.024,-1.442,-0.992,-1.670,-1.389,-0.542,-0.484,-0.141,0.024,0.006
'0:00.288',-2.155,-2.103,0.051,2.129,-1.103,-1.026,-1.442,-0.990,-1.669,-1.389,-0.543,-0.483,-0.142,0.022,0.007
'0:00.289',-2.150,-2.100,0.050,2.125,-1.101,-1.024,-1.442,-0.991,-1.669,-1.389,-0.542,-0.484,-0.141,0.023,0.007
'0:00.290',-2.146,-2.096,0.050,2.122,-1.098,-1.024,-1.442,-0.991,-1.669,-1.387,-0.541,-0.482,-0.140,0.023,0.007
'0:00.291',-2.142,-2.091,0.050,2.117,-1.097,-1.020,-1.441,-0.988,-1.665,-1.385,-0.540,-0.480,-0.140,0.021,0.007
'0:00.292',-2.142,-2.090,0.051,2.115,-1.097,-1.019,-1.442,-0.989,-1.665,-1.387,-0.541,-0.480,-0.139,0.021,0.009
'0:00.293',-2.143,-2.088,0.053,2.115,-1.098,-1.017,-1.442,-0.990,-1.665,-1.386,-0.540,-0.481,-0.139,0.023,0.007
'0:00.294',-2.141,-2.090,0.051,2.115,-1.097,-1.018,-1.440,-0.988,-1.665,-1.383,-0.539,-0.481,-0.139,0.022,0.005
'0:00.295',-2.145,-2.095,0.050,2.120,-1.098,-1.022,-1.442,-0.986,-1.663,-1.382,-0.539,-0.480,-0.138,0.022,0.007
'0:00.296',-2.144,-2.092,0.052,2.118,-1.099,-1.020,-1.443,-0.985,-1.663,-1.383,-0.540,-0.482,-0.138,0.023,0.007
'0:00.297',-2.142,-2.089,0.053,2.115,-1.097,-1.018,-1.442,-0.985,-1.663,-1.379,-0.539,-0.480,-0.136,0.021,0.006
'0:00.298',-2.144,-2.090,0.055,2.117,-1.100,-1.017,-1.440,-0.983,-1.661,-1.377,-0.537,-0.481,-0.138,0.022,0.005
'0:00.299',-2.144,-2.088,0.056,2.116,-1.101,-1.016,-1.440,-0.982,-1.659,-1.377,-0.538,-0.482,-0.141,0.025,0.004
'0:00.300',-2.139,-2.086,0.053,2.112,-1.097,-1.016,-1.440,-0.982,-1.658,-1.377,-0.537,-0.480,-0.140,0.024,0.004
'0:00.301',-2.136,-2.083,0.052,2.110,-1.095,-1.016,-1.440,-0.982,-1.657,-1.377,-0.537,-0.482,-0.140,0.024,0.005
'0:00.302',-2.135,-2.084,0.051,2.110,-1.094,-1.016,-1.438,-0.978,-1.655,-1.376,-0.539,-0.480,-0.138,0.022,0.003
'0:00.303',-2.135,-2.083,0.053,2.109,-1.095,-1.014,-1.438,-0.979,-1.657,-1.379,-0.538,-0.481,-0.137,0.024,0.003
'0:00.304',-2.136,-2.082,0.054,2.110,-1.095,-1.014,-1.440,-0.984,-1.660,-1.381,-0.538,-0.482,-0.136,0.025,0.004
'0:00.305',-2.136,-2.082,0.054,2.108,-1.095,-1.013,-1.440,-0.983,-1.659,-1.379,-0.539,-0.482,-0.136,0.026,0.004
'0:00.306',-2.139,-2.083,0.056,2.111,-1.098,-1.014,-1.442,-0.985,-1.659,-1.382,-0.542,-0.484,-0.136,0.028,0.004
'0:00.307',-2.143,-2.089,0.055,2.116,-1.099,-1.016,-1.446,-0.986,-1.661,-1.383,-0.543,-0.484,-0.135,0.027,0.004
'0:00.308',-2.144,-2.091,0.052,2.118,-1.099,-1.018,-1.446,-0.985,-1.660,-1.381,-0.542,-0.482,-0.132,0.027,0.005
'0:00.309',-2.142,-2.091,0.050,2.116,-1.095,-1.021,-1.446,-0.986,-1.660,-1.381,-0.542,-0.482,-0.131,0.025,0.006
'0:00.310',-2.140,-2.091,0.050,2.115,-1.095,-1.020,-1.446,-0.987,-1.661,-1.381,-0.540,-0.483,-0.130,0.026,0.006
'0:00.311',-2.134,-2.087,0.047,2.110,-1.091,-1.020,-1.448,-0.986,-1.661,-1.383,-0.542,-0.485,-0.129,0.027,0.006
'0:00.312',-2.131,-2.087,0.045,2.109,-1.089,-1.020,-1.448,-0.986,-1.659,-1.383,-0.541,-0.484,-0.130,0.025,0.007
'0:00.313',-2.135,-2.090,0.045,2.112,-1.091,-1.022,-1.450,-0.984,-1.657,-1.381,-0.538,-0.483,-0.130,0.024,0.008
'0:00.314',-2.135,-2.086,0.049,2.111,-1.092,-1.018,-1.445,-0.981,-1.655,-1.379,-0.536,-0.480,-0.129,0.023,0.008
'0:00.315',-2.132,-2.082,0.051,2.107,-1.091,-1.015,-1.436,-0.975,-1.651,-1.373,-0.534,-0.476,-0.129,0.024,0.005
'0:00.316',-2.130,-2.079,0.051,2.104,-1.091,-1.014,-1.437,-0.973,-1.649,-1.371,-0.532,-0.475,-0.128,0.024,0.004
'0:00.317',-2.126,-2.075,0.051,2.100,-1.088,-1.012,-1.437,-0.974,-1.649,-1.373,-0.533,-0.478,-0.131,0.026,0.005
'0:00.318',-2.125,-2.072,0.052,2.099,-1.089,-1.010,-1.437,-0.972,-1.649,-1.370,-0.534,-0.478,-0.132,0.028,0.004
'0:00.319',-2.131,-2.075,0.057,2.103,-1.094,-1.009,-1.437,-0.973,-1.647,-1.370,-0.534,-0.477,-0.131,0.028,0.004
'0:00.320',-2.127,-2.077,0.050,2.102,-1.088,-1.014,-1.440,-0.975,-1.649,-1.374,-0.537,-0.482,-0.133,0.030,0.004
'0:00.321',-2.131,-2.084,0.046,2.107,-1.089,-1.018,-1.440,-0.973,-1.649,-1.373,-0.536,-0.480,-0.134,0.026,0.002
'0:00.322',-2.140,-2.085,0.055,2.112,-1.098,-1.014,-1.433,-0.968,-1.643,-1.369,-0.533,-0.475,-0.134,0.024,0.001
'0:00.323',-2.139,-2.083,0.057,2.111,-1.098,-1.012,-1.435,-0.966,-1.643,-1.369,-0.532,-0.476,-0.134,0.026,0.002
'0:00.324',-2.138,-2.083,0.054,2.111,-1.096,-1.014,-1.440,-0.971,-1.648,-1.374,-0.535,-0.478,-0.134,0.028,0.004
'0:00.325',-2.143,-2.087,0.057,2.115,-1.100,-1.015,-1.442,-0.973,-1.649,-1.374,-0.537,-0.478,-0.133,0.029,0.005
'0:00.326',-2.144,-2.091,0.054,2.118,-1.099,-1.018,-1.439,-0.972,-1.649,-1.375,-0.539,-0.480,-0.134,0.028,0.004
'0:00.327',-2.139,-2.090,0.049,2.115,-1.095,-1.020,-1.441,-0.972,-1.647,-1.375,-0.537,-0.480,-0.134,0.026,0.003
'0:00.328',-2.137,-2.088,0.049,2.112,-1.093,-1.020,-1.446,-0.971,-1.645,-1.374,-0.535,-0.478,-0.132,0.028,0.004
'0:00.329',-2.134,-2.087,0.046,2.111,-1.091,-1.020,-1.445,-0.970,-1.645,-1.373,-0.533,-0.477,-0.133,0.028,0.004
'0:00.330',-2.133,-2.087,0.046,2.110,-1.090,-1.020,-1.444,-0.968,-1.644,-1.371,-0.531,-0.476,-0.132,0.025,0.002
'0:00.331',-2.127,-2.082,0.046,2.104,-1.087,-1.018,-1.442,-0.966,-1.641,-1.371,-0.532,-0.475,-0.131,0.026,0.002
'0:00.332',-2.124,-2.079,0.045,2.101,-1.085,-1.016,-1.440,-0.965,-1.639,-1.369,-0.530,-0.473,-0.131,0.026,0.002
'0:00.333',-2.119,-2.077,0.043,2.098,-1.081,-1.017,-1.441,-0.964,-1.637,-1.369,-0.529,-0.473,-0.128,0.025,0.003
'0:00.334',-2.119,-2.076,0.043,2.097,-1.081,-1.016,-1.440,-0.962,-1.635,-1.368,-0.526,-0.472,-0.128,0.027,0.002
'0:00.335',-2.123,-2.077,0.047,2.100,-1.085,-1.015,-1.436,-0.960,-1.633,-1.365,-0.523,-0.470,-0.128,0.024,0.000
'0:00.336',-2.120,-2.075,0.045,2.098,-1.083,-1.015,-1.437,-0.955,-1.630,-1.367,-0.525,-0.471,-0.127,0.023,0.002
'0:00.337',-2.115,-2.071,0.043,2.093,-1.079,-1.014,-1.438,-0.953,-1.629,-1.363,-0.524,-0.470,-0.124,0.024,0.001
'0:00.338',-2.114,-2.068,0.045,2.091,-1.080,-1.011,-1.438,-0.956,-1.627,-1.356,-0.521,-0.468,-0.123,0.023,-0.001
'0:00.339',-2.123,-2.076,0.046,2.099,-1.085,-1.014,-1.438,-0.955,-1.629,-1.361,-0.524,-0.471,-0.126,0.022,-0.001
'0:00.340',-2.128,-2.083,0.045,2.106,-1.087,-1.018,-1.438,-0.955,-1.631,-1.361,-0.528,-0.472,-0.125,0.024,-0.001
'0:00.341',-2.132,-2.089,0.043,2.111,-1.088,-1.023,-1.439,-0.955,-1.631,-1.363,-0.529,-0.471,-0.123,0.022,-0.001
'0:00.342',-2.132,-2.091,0.041,2.112,-1.087,-1.025,-1.444,-0.954,-1.633,-1.363,-0.530,-0.472,-0.122,0.024,0.000
'0:00.343',-2.131,-2.093,0.038,2.112,-1.085,-1.028,-1.444,-0.956,-1.631,-1.363,-0.530,-0.474,-0.123,0.022,-0.001
'0:00.344',-2.135,-2.095,0.039,2.115,-1.087,-1.028,-1.442,-0.957,-1.631,-1.366,-0.533,-0.474,-0.121,0.021,0.001
'0:00.345',-2.132,-2.087,0.045,2.110,-1.089,-1.021,-1.442,-0.955,-1.629,-1.365,-0.531,-0.472,-0.120,0.026,-0.001
'0:00.346',-2.126,-2.080,0.046,2.103,-1.086,-1.017,-1.442,-0.953,-1.627,-1.363,-0.529,-0.471,-0.119,0.027,-0.001
'0:00.347',-2.122,-2.079,0.043,2.100,-1.083,-1.018,-1.442,-0.952,-1.629,-1.361,-0.529,-0.471,-0.119,0.028,0.001
'0:00.348',-2.122,-2.079,0.044,2.100,-1.083,-1.017,-1.445,-0.954,-1.629,-1.364,-0.529,-0.469,-0.118,0.029,0.003
'0:00.349',-2.119,-2.079,0.041,2.099,-1.081,-1.018,-1.449,-0.957,-1.629,-1.365,-0.530,-0.470,-0.117,0.029,0.002
'0:00.350',-2.122,-2.082,0.040,2.102,-1.081,-1.020,-1.449,-0.956,-1.631,-1.367,-0.532,-0.472,-0.118,0.029,0.001
'0:00.351',-2.126,-2.082,0.044,2.104,-1.085,-1.018,-1.448,-0.953,-1.630,-1.365,-0.533,-0.471,-0.117,0.029,0.000
'0:00.352',-2.131,-2.085,0.046,2.108,-1.089,-1.020,-1.453,-0.956,-1.631,-1.366,-0.533,-0.473,-0.116,0.030,0.000
'0:00.353',-2.133,-2.088,0.045,2.111,-1.089,-1.021,-1.455,-0.958,-1.634,-1.369,-0.533,-0.476,-0.116,0.032,-0.001
'0:00.354',-2.128,-2.086,0.043,2.107,-1.086,-1.022,-1.454,-0.954,-1.629,-1.367,-0.532,-0.474,-0.116,0.029,-0.003
'0:00.355',-2.127,-2.087,0.041,2.107,-1.084,-1.022,-1.452,-0.951,-1.627,-1.365,-0.531,-0.475,-0.117,0.027,-0.002
'0:00.356',-2.125,-2.086,0.040,2.106,-1.083,-1.022,-1.450,-0.949,-1.625,-1.363,-0.530,-0.475,-0.116,0.025,-0.002
'0:00.357',-2.126,-2.084,0.042,2.106,-1.084,-1.022,-1.448,-0.947,-1.622,-1.361,-0.532,-0.474,-0.115,0.025,-0.003
'0:00.358',-2.126,-2.083,0.043,2.104,-1.085,-1.020,-1.446,-0.946,-1.622,-1.360,-0.531,-0.474,-0.114,0.025,-0.004
'0:00.359',-2.128,-2.083,0.045,2.106,-1.087,-1.018,-1.450,-0.947,-1.620,-1.358,-0.528,-0.472,-0.113,0.025,-0.002
'0:00.360',-2.131,-2.086,0.045,2.108,-1.088,-1.020,-1.450,-0.943,-1.618,-1.356,-0.527,-0.470,-0.111,0.026,-0.004
'0:00.361',-2.131,-2.091,0.041,2.111,-1.086,-1.025,-1.449,-0.943,-1.618,-1.357,-0.526,-0.470,-0.110,0.025,-0.004
'0:00.362',-2.127,-2.090,0.037,2.108,-1.082,-1.026,-1.448,-0.940,-1.614,-1.357,-0.524,-0.469,-0.110,0.025,-0.004
'0:00.363',-2.119,-2.084,0.035,2.102,-1.077,-1.024,-1.448,-0.938,-1.613,-1.353,-0.521,-0.466,-0.107,0.025,-0.004
'0:00.364',-2.127,-2.088,0.038,2.107,-1.083,-1.025,-1.450,-0.941,-1.614,-1.354,-0.522,-0.465,-0.104,0.025,-0.002
'0:00.365',-2.126,-2.087,0.038,2.107,-1.083,-1.024,-1.450,-0.939,-1.613,-1.355,-0.522,-0.464,-0.103,0.026,-0.002
'0:00.366',-2.122,-2.087,0.035,2.104,-1.079,-1.026,-1.450,-0.936,-1.611,-1.353,-0.522,-0.463,-0.103,0.029,-0.002
'0:00.367',-2.123,-2.088,0.034,2.106,-1.079,-1.027,-1.450,-0.936,-1.609,-1.352,-0.521,-0.462,-0.102,0.028,-0.002
'0:00.368',-2.119,-2.086,0.034,2.103,-1.077,-1.026,-1.452,-0.937,-1.609,-1.353,-0.520,-0.463,-0.101,0.028,-0.003
'0:00.369',-2.119,-2.087,0.033,2.103,-1.076,-1.027,-1.452,-0.935,-1.607,-1.349,-0.518,-0.459,-0.098,0.028,-0.003
'0:00.370',-2.119,-2.086,0.033,2.102,-1.075,-1.026,-1.452,-0.934,-1.607,-1.347,-0.518,-0.458,-0.097,0.026,-0.004
'0:00.371',-2.117,-2.083,0.034,2.100,-1.076,-1.024,-1.453,-0.932,-1.605,-1.347,-0.519,-0.459,-0.098,0.026,-0.004
'0:00.372',-2.120,-2.088,0.033,2.104,-1.077,-1.028,-1.455,-0.932,-1.605,-1.347,-0.517,-0.458,-0.097,0.026,-0.004
'0:00.373',-2.120,-2.092,0.029,2.106,-1.075,-1.032,-1.457,-0.935,-1.607,-1.347,-0.518,-0.459,-0.097,0.026,-0.004
'0:00.374',-2.119,-2.092,0.026,2.106,-1.073,-1.033,-1.454,-0.930,-1.601,-1.347,-0.518,-0.458,-0.098,0.025,-0.006
'0:00.375',-2.121,-2.095,0.026,2.108,-1.074,-1.034,-1.455,-0.929,-1.602,-1.347,-0.518,-0.458,-0.099,0.025,-0.006
'0:00.376',-2.119,-2.095,0.025,2.107,-1.072,-1.035,-1.454,-0.928,-1.601,-1.347,-0.518,-0.458,-0.097,0.023,-0.005
'0:00.377',-2.119,-2.092,0.027,2.106,-1.073,-1.032,-1.451,-0.925,-1.597,-1.345,-0.516,-0.457,-0.096,0.024,-0.007
'0:00.378',-2.119,-2.088,0.030,2.103,-1.075,-1.029,-1.451,-0.924,-1.597,-1.343,-0.515,-0.457,-0.096,0.028,-0.009
'0:00.379',-2.120,-2.088,0.032,2.104,-1.077,-1.028,-1.452,-0.924,-1.597,-1.343,-0.513,-0.455,-0.093,0.030,-0.009
'0:00.380',-2.122,-2.086,0.036,2.104,-1.079,-1.024,-1.454,-0.923,-1.595,-1.343,-0.512,-0.454,-0.093,0.033,-0.009
'0:00.381',-2.116,-2.083,0.034,2.100,-1.075,-1.024,-1.458,-0.922,-1.592,-1.339,-0.510,-0.452,-0.093,0.034,-0.010
'0:00.382',-2.111,-2.080,0.030,2.095,-1.071,-1.024,-1.456,-0.916,-1.587,-1.335,-0.506,-0.448,-0.092,0.031,-0.012
'0:00.383',-2.103,-2.072,0.030,2.087,-1.067,-1.020,-1.454,-0.913,-1.583,-1.331,-0.501,-0.444,-0.090,0.029,-0.013
'0:00.384',-2.103,-2.072,0.030,2.087,-1.067,-1.020,-1.456,-0.913,-1.582,-1.329,-0.500,-0.444,-0.088,0.031,-0.013
'0:00.385',-2.105,-2.072,0.033,2.089,-1.069,-1.020,-1.456,-0.913,-1.581,-1.329,-0.503,-0.444,-0.088,0.032,-0.013
'0:00.386',-2.107,-2.075,0.033,2.091,-1.070,-1.021,-1.454,-0.912,-1.581,-1.331,-0.503,-0.447,-0.089,0.031,-0.015
'0:00.387',-2.111,-2.076,0.035,2.094,-1.073,-1.020,-1.456,-0.914,-1.581,-1.331,-0.504,-0.447,-0.086,0.033,-0.015
'0:00.388',-2.115,-2.080,0.034,2.098,-1.075,-1.023,-1.460,-0.914,-1.582,-1.333,-0.505,-0.449,-0.086,0.034,-0.015
'0:00.389',-2.120,-2.090,0.030,2.104,-1.075,-1.030,-1.460,-0.915,-1.583,-1.335,-0.507,-0.451,-0.085,0.033,-0.015
'0:00.390',-2.117,-2.086,0.030,2.102,-1.074,-1.028,-1.463,-0.913,-1.583,-1.335,-0.505,-0.448,-0.084,0.035,-0.016
'0:00.391',-2.107,-2.075,0.032,2.091,-1.069,-1.022,-1.464,-0.907,-1.577,-1.329,-0.502,-0.444,-0.082,0.036,-0.018
'0:00.392',-2.100,-2.069,0.031,2.084,-1.066,-1.018,-1.460,-0.909,-1.573,-1.323,-0.498,-0.440,-0.081,0.038,-0.018
'0:00.393',-2.096,-2.068,0.029,2.082,-1.063,-1.020,-1.459,-0.907,-1.572,-1.324,-0.494,-0.436,-0.077,0.037,-0.017
'0:00.394',-2.095,-2.070,0.026,2.083,-1.061,-1.022,-1.457,-0.900,-1.567,-1.319,-0.491,-0.433,-0.075,0.033,-0.019
'0:00.395',-2.098,-2.071,0.026,2.085,-1.062,-1.022,-1.460,-0.901,-1.568,-1.319,-0.491,-0.433,-0.076,0.035,-0.021
'0:00.396',-2.098,-2.071,0.027,2.084,-1.062,-1.022,-1.456,-0.898,-1.565,-1.319,-0.489,-0.430,-0.073,0.036,-0.019
'0:00.397',-2.096,-2.067,0.029,2.082,-1.063,-1.019,-1.455,-0.895,-1.562,-1.313,-0.484,-0.425,-0.071,0.039,-0.019
'0:00.398',-2.095,-2.066,0.030,2.080,-1.062,-1.018,-1.455,-0.889,-1.558,-1.310,-0.484,-0.423,-0.070,0.039,-0.021
'0:00.399',-2.095,-2.067,0.028,2.082,-1.062,-1.020,-1.454,-0.888,-1.556,-1.309,-0.484,-0.423,-0.069,0.038,-0.022
'0:00.400',-2.097,-2.067,0.030,2.082,-1.063,-1.018,-1.458,-0.894,-1.560,-1.309,-0.482,-0.421,-0.068,0.041,-0.019
'0:00.401',-2.095,-2.067,0.029,2.081,-1.062,-1.018,-1.456,-0.892,-1.557,-1.308,-0.482,-0.422,-0.069,0.041,-0.021
'0:00.402',-2.091,-2.063,0.028,2.077,-1.060,-1.018,-1.456,-0.886,-1.552,-1.302,-0.479,-0.420,-0.068,0.040,-0.024
'0:00.403',-2.087,-2.060,0.028,2.074,-1.058,-1.016,-1.456,-0.883,-1.548,-1.300,-0.475,-0.415,-0.063,0.042,-0.022
'0:00.404',-2.088,-2.058,0.029,2.074,-1.059,-1.014,-1.460,-0.885,-1.548,-1.300,-0.475,-0.415,-0.061,0.044,-0.021
'0:00.405',-2.087,-2.057,0.029,2.071,-1.058,-1.014,-1.461,-0.884,-1.548,-1.299,-0.474,-0.414,-0.059,0.043,-0.021
'0:00.406',-2.085,-2.058,0.027,2.071,-1.056,-1.016,-1.460,-0.882,-1.547,-1.300,-0.474,-0.413,-0.059,0.043,-0.021
'0:00.407',-2.083,-2.056,0.028,2.070,-1.056,-1.014,-1.463,-0.882,-1.546,-1.298,-0.474,-0.410,-0.056,0.046,-0.021
'0:00.408',-2.080,-2.057,0.024,2.068,-1.052,-1.016,-1.466,-0.883,-1.546,-1.297,-0.471,-0.407,-0.052,0.046,-0.019
'0:00.409',-2.080,-2.058,0.021,2.070,-1.050,-1.018,-1.468,-0.883,-1.546,-1.299,-0.472,-0.406,-0.051,0.044,-0.018
'0:00.410',-2.077,-2.056,0.021,2.067,-1.049,-1.018,-1.468,-0.882,-1.545,-1.298,-0.471,-0.405,-0.050,0.044,-0.018
'0:00.411',-2.070,-2.050,0.020,2.060,-1.045,-1.015,-1.467,-0.878,-1.542,-1.294,-0.470,-0.405,-0.050,0.045,-0.018
'0:00.412',-2.068,-2.051,0.018,2.059,-1.043,-1.016,-1.469,-0.878,-1.539,-1.291,-0.468,-0.403,-0.047,0.046,-0.018
'0:00.413',-2.070,-2.053,0.017,2.061,-1.043,-1.018,-1.470,-0.880,-1.539,-1.290,-0.466,-0.400,-0.044,0.047,-0.017
'0:00.414',-2.062,-2.049,0.014,2.055,-1.038,-1.017,-1.468,-0.875,-1.534,-1.286,-0.462,-0.396,-0.041,0.046,-0.018
'0:00.415',-2.060,-2.050,0.011,2.055,-1.036,-1.019,-1.469,-0.873,-1.534,-1.284,-0.458,-0.392,-0.038,0.046,-0.018
'0:00.416',-2.063,-2.052,0.012,2.058,-1.038,-1.020,-1.471,-0.873,-1.533,-1.285,-0.459,-0.391,-0.036,0.046,-0.018
'0:00.417',-2.063,-2.049,0.015,2.056,-1.039,-1.017,-1.471,-0.874,-1.532,-1.283,-0.457,-0.391,-0.035,0.048,-0.018
'0:00.418',-2.059,-2.043,0.015,2.051,-1.038,-1.014,-1.470,-0.873,-1.530,-1.278,-0.453,-0.387,-0.033,0.050,-0.018
'0:00.419',-2.054,-2.039,0.014,2.046,-1.034,-1.012,-1.469,-0.867,-1.525,-1.276,-0.451,-0.383,-0.029,0.051,-0.018
'0:00.420',-2.054,-2.038,0.016,2.046,-1.036,-1.011,-1.470,-0.867,-1.524,-1.273,-0.448,-0.382,-0.026,0.052,-0.018
'0:00.421',-2.056,-2.041,0.015,2.049,-1.036,-1.012,-1.471,-0.868,-1.523,-1.272,-0.445,-0.379,-0.025,0.051,-0.019
'0:00.422',-2.047,-2.035,0.012,2.041,-1.030,-1.011,-1.473,-0.866,-1.520,-1.270,-0.442,-0.374,-0.021,0.050,-0.019
'0:00.423',-2.040,-2.026,0.013,2.034,-1.027,-1.006,-1.472,-0.864,-1.518,-1.266,-0.438,-0.371,-0.016,0.054,-0.018
'0:00.424',-2.042,-2.027,0.013,2.034,-1.028,-1.006,-1.474,-0.866,-1.520,-1.266,-0.434,-0.369,-0.013,0.054,-0.017
'0:00.425',-2.043,-2.030,0.013,2.037,-1.028,-1.008,-1.478,-0.867,-1.519,-1.266,-0.433,-0.367,-0.008,0.055,-0.016
'0:00.426',-2.044,-2.029,0.015,2.037,-1.030,-1.007,-1.482,-0.868,-1.521,-1.268,-0.434,-0.368,-0.005,0.060,-0.017
'0:00.427',-2.050,-2.034,0.015,2.042,-1.033,-1.009,-1.488,-0.873,-1.526,-1.270,-0.435,-0.368,-0.003,0.062,-0.015
'0:00.428',-2.050,-2.035,0.014,2.042,-1.032,-1.010,-1.490,-0.874,-1.525,-1.270,-0.434,-0.367,-0.001,0.062,-0.015
'0:00.429',-2.046,-2.034,0.013,2.040,-1.030,-1.010,-1.490,-0.873,-1.526,-1.271,-0.431,-0.365,0.002,0.063,-0.015
'0:00.430',-2.046,-2.035,0.011,2.041,-1.028,-1.012,-1.487,-0.872,-1.526,-1.271,-0.433,-0.366,-0.001,0.062,-0.015
'0:00.431',-2.034,-2.024,0.011,2.029,-1.023,-1.006,-1.488,-0.871,-1.522,-1.265,-0.430,-0.363,0.002,0.063,-0.015
'0:00.432',-2.030,-2.017,0.013,2.023,-1.021,-1.002,-1.492,-0.870,-1.520,-1.262,-0.423,-0.358,0.007,0.065,-0.013
'0:00.433',-2.027,-2.017,0.011,2.022,-1.019,-1.003,-1.492,-0.870,-1.522,-1.261,-0.421,-0.356,0.007,0.065,-0.015
'0:00.434',-2.023,-2.013,0.011,2.018,-1.018,-1.000,-1.492,-0.870,-1.518,-1.258,-0.417,-0.353,0.009,0.065,-0.016
'0:00.435',-2.025,-2.018,0.007,2.022,-1.016,-1.005,-1.490,-0.868,-1.516,-1.257,-0.415,-0.349,0.009,0.064,-0.015
'0:00.436',-2.023,-2.017,0.006,2.020,-1.015,-1.005,-1.490,-0.867,-1.516,-1.256,-0.415,-0.348,0.013,0.061,-0.015
'0:00.437',-2.022,-2.013,0.011,2.018,-1.017,-1.000,-1.492,-0.866,-1.516,-1.255,-0.414,-0.349,0.015,0.062,-0.015
'0:00.438',-2.023,-2.009,0.013,2.016,-1.018,-0.998,-1.494,-0.868,-1.517,-1.255,-0.413,-0.347,0.015,0.065,-0.015
'0:00.439',-2.022,-2.006,0.017,2.014,-1.020,-0.994,-1.495,-0.869,-1.515,-1.254,-0.411,-0.344,0.019,0.068,-0.014
'0:00.440',-2.031,-2.013,0.019,2.022,-1.026,-0.997,-1.501,-0.873,-1.518,-1.256,-0.413,-0.344,0.021,0.070,-0.013
'0:00.441',-2.039,-2.016,0.024,2.027,-1.032,-0.996,-1.505,-0.877,-1.522,-1.258,-0.416,-0.344,0.022,0.073,-0.013
'0:00.442',-2.035,-2.011,0.025,2.023,-1.030,-0.993,-1.506,-0.877,-1.522,-1.257,-0.413,-0.343,0.025,0.076,-0.013
'0:00.443',-2.033,-2.006,0.026,2.019,-1.030,-0.990,-1.505,-0.878,-1.522,-1.256,-0.411,-0.339,0.026,0.076,-0.012
'0:00.444',-2.033,-2.004,0.029,2.018,-1.030,-0.988,-1.506,-0.881,-1.524,-1.256,-0.409,-0.337,0.029,0.076,-0.013
'0:00.445',-2.027,-1.998,0.029,2.013,-1.028,-0.985,-1.510,-0.882,-1.524,-1.257,-0.408,-0.336,0.028,0.079,-0.013
'0:00.446',-2.027,-1.994,0.033,2.010,-1.030,-0.981,-1.506,-0.880,-1.522,-1.256,-0.406,-0.333,0.029,0.083,-0.015
'0:00.447',-2.026,-1.992,0.033,2.010,-1.030,-0.980,-1.509,-0.885,-1.523,-1.253,-0.404,-0.331,0.031,0.084,-0.014
'0:00.448',-2.019,-1.986,0.033,2.003,-1.026,-0.977,-1.513,-0.889,-1.525,-1.252,-0.401,-0.327,0.032,0.085,-0.011
'0:00.449',-2.015,-1.984,0.032,2.000,-1.024,-0.976,-1.512,-0.891,-1.527,-1.250,-0.399,-0.324,0.034,0.085,-0.011
'0:00.450',-2.017,-1.984,0.034,2.001,-1.026,-0.975,-1.515,-0.892,-1.528,-1.251,-0.396,-0.322,0.036,0.086,-0.013
'0:00.451',-2.014,-1.980,0.033,1.997,-1.024,-0.974,-1.514,-0.892,-1.528,-1.251,-0.396,-0.321,0.039,0.086,-0.010
'0:00.452',-2.013,-1.979,0.034,1.996,-1.023,-0.973,-1.518,-0.897,-1.532,-1.254,-0.396,-0.320,0.040,0.088,-0.006
'0:00.453',-2.015,-1.980,0.035,1.997,-1.026,-0.972,-1.522,-0.902,-1.535,-1.252,-0.393,-0.318,0.040,0.089,-0.006
'0:00.454',-2.016,-1.984,0.032,2.000,-1.024,-0.977,-1.522,-0.903,-1.536,-1.252,-0.393,-0.316,0.042,0.087,-0.005
'0:00.455',-2.018,-1.987,0.031,2.002,-1.025,-0.978,-1.522,-0.906,-1.537,-1.252,-0.392,-0.314,0.043,0.087,-0.003
'0:00.456',-2.016,-1.984,0.032,2.001,-1.024,-0.976,-1.524,-0.907,-1.537,-1.251,-0.388,-0.310,0.045,0.086,-0.002
'0:00.457',-2.016,-1.983,0.033,2.000,-1.024,-0.975,-1.524,-0.909,-1.538,-1.250,-0.385,-0.306,0.048,0.088,-0.002
'0:00.458',-2.017,-1.982,0.035,1.999,-1.026,-0.973,-1.526,-0.913,-1.542,-1.250,-0.384,-0.305,0.049,0.087,0.001
'0:00.459',-2.017,-1.980,0.038,1.998,-1.028,-0.971,-1.528,-0.916,-1.546,-1.250,-0.383,-0.302,0.051,0.088,0.004
'0:00.460',-2.025,-1.986,0.039,2.005,-1.032,-0.973,-1.530,-0.923,-1.549,-1.252,-0.385,-0.303,0.051,0.089,0.005
'0:00.461',-2.035,-1.995,0.040,2.015,-1.038,-0.977,-1.534,-0.929,-1.554,-1.256,-0.384,-0.305,0.051,0.090,0.007
'0:00.462',-2.031,-1.992,0.040,2.011,-1.036,-0.976,-1.532,-0.930,-1.554,-1.256,-0.382,-0.301,0.052,0.090,0.008
'0:00.463',-2.030,-1.992,0.037,2.011,-1.034,-0.978,-1.532,-0.932,-1.557,-1.256,-0.381,-0.301,0.052,0.089,0.007
'0:00.464',-2.034,-1.993,0.042,2.014,-1.038,-0.976,-1.534,-0.936,-1.562,-1.258,-0.382,-0.301,0.054,0.092,0.011
'0:00.465',-2.029,-1.986,0.042,2.007,-1.036,-0.972,-1.534,-0.940,-1.565,-1.260,-0.382,-0.299,0.057,0.095,0.015
'0:00.466',-2.023,-1.986,0.038,2.005,-1.032,-0.973,-1.534,-0.944,-1.567,-1.260,-0.378,-0.298,0.058,0.093,0.015
'0:00.467',-2.022,-1.985,0.037,2.004,-1.030,-0.974,-1.534,-0.947,-1.568,-1.261,-0.377,-0.296,0.059,0.090,0.017
'0:00.468',-2.025,-1.986,0.040,2.006,-1.033,-0.973,-1.534,-0.952,-1.572,-1.261,-0.379,-0.298,0.056,0.091,0.017
'0:00.469',-2.025,-1.982,0.043,2.003,-1.034,-0.969,-1.536,-0.956,-1.575,-1.263,-0.379,-0.300,0.053,0.092,0.018
'0:00.470',-2.023,-1.980,0.043,2.002,-1.034,-0.968,-1.537,-0.960,-1.580,-1.266,-0.380,-0.302,0.052,0.092,0.020
'0:00.471',-2.022,-1.978,0.045,2.000,-1.034,-0.966,-1.537,-0.963,-1.585,-1.267,-0.383,-0.305,0.051,0.092,0.022
'0:00.472',-2.023,-1.974,0.049,1.999,-1.036,-0.963,-1.538,-0.968,-1.589,-1.270,-0.384,-0.307,0.050,0.092,0.025
'0:00.473',-2.028,-1.982,0.046,2.005,-1.038,-0.967,-1.538,-0.974,-1.593,-1.272,-0.386,-0.311,0.047,0.091,0.025
'0:00.474',-2.030,-1.989,0.041,2.010,-1.036,-0.974,-1.535,-0.973,-1.593,-1.272,-0.386,-0.310,0.045,0.086,0.025
'0:00.475',-2.037,-1.994,0.042,2.015,-1.040,-0.976,-1.532,-0.977,-1.597,-1.274,-0.390,-0.315,0.042,0.086,0.025
'0:00.476',-2.043,-1.998,0.045,2.021,-1.044,-0.977,-1.532,-0.982,-1.603,-1.279,-0.396,-0.320,0.037,0.084,0.026
'0:00.477',-2.046,-1.998,0.050,2.022,-1.048,-0.974,-1.530,-0.984,-1.607,-1.280,-0.399,-0.324,0.033,0.084,0.025
'0:00.478',-2.051,-1.996,0.056,2.023,-1.054,-0.970,-1.528,-0.987,-1.611,-1.282,-0.402,-0.329,0.028,0.086,0.025
'0:00.479',-2.056,-1.998,0.059,2.027,-1.058,-0.970,-1.524,-0.987,-1.611,-1.286,-0.404,-0.332,0.021,0.083,0.024
'0:00.480',-2.059,-1.999,0.060,2.029,-1.060,-0.969,-1.522,-0.988,-1.614,-1.289,-0.409,-0.338,0.015,0.082,0.025
'0:00.481',-2.068,-2.002,0.067,2.035,-1.067,-0.968,-1.523,-0.995,-1.620,-1.294,-0.413,-0.342,0.010,0.082,0.026
'0:00.482',-2.070,-2.001,0.068,2.035,-1.069,-0.966,-1.522,-0.998,-1.622,-1.296,-0.415,-0.345,0.004,0.080,0.023
'0:00.483',-2.070,-2.003,0.067,2.036,-1.068,-0.968,-1.520,-0.999,-1.627,-1.302,-0.421,-0.351,-0.002,0.078,0.021
'0:00.484',-2.080,-2.011,0.070,2.046,-1.075,-0.971,-1.518,-1.004,-1.632,-1.310,-0.425,-0.356,-0.007,0.077,0.023
'0:00.485',-2.085,-2.014,0.071,2.050,-1.078,-0.972,-1.518,-1.008,-1.636,-1.314,-0.430,-0.361,-0.011,0.076,0.024
'0:00.486',-2.088,-2.018,0.070,2.053,-1.079,-0.974,-1.517,-1.011,-1.640,-1.319,-0.435,-0.366,-0.018,0.073,0.021
'0:00.487',-2.090,-2.022,0.068,2.056,-1.079,-0.977,-1.514,-1.012,-1.642,-1.323,-0.437,-0.368,-0.021,0.070,0.021
'0:00.488',-2.091,-2.026,0.064,2.058,-1.077,-0.981,-1.512,-1.014,-1.645,-1.323,-0.440,-0.370,-0.024,0.066,0.023
'0:00.489',-2.087,-2.027,0.059,2.058,-1.073,-0.984,-1.509,-1.014,-1.649,-1.327,-0.443,-0.374,-0.028,0.061,0.025
'0:00.490',-2.091,-2.033,0.059,2.062,-1.075,-0.987,-1.506,-1.014,-1.651,-1.331,-0.445,-0.377,-0.030,0.059,0.023
'0:00.491',-2.095,-2.037,0.058,2.066,-1.077,-0.990,-1.504,-1.018,-1.653,-1.333,-0.448,-0.380,-0.035,0.056,0.022
'0:00.492',-2.097,-2.042,0.054,2.070,-1.076,-0.994,-1.506,-1.020,-1.657,-1.337,-0.452,-0.385,-0.037,0.052,0.024
'0:00.493',-2.103,-2.052,0.051,2.078,-1.077,-1.000,-1.504,-1.020,-1.661,-1.339,-0.457,-0.389,-0.042,0.049,0.025
'0:00.494',-2.099,-2.053,0.046,2.075,-1.073,-1.003,-1.498,-1.018,-1.661,-1.339,-0.460,-0.393,-0.048,0.045,0.024
'0:00.495',-2.099,-2.053,0.045,2.075,-1.072,-1.004,-1.494,-1.016,-1.661,-1.342,-0.461,-0.394,-0.051,0.043,0.022
'0:00.496',-2.102,-2.057,0.045,2.079,-1.074,-1.006,-1.492,-1.019,-1.661,-1.345,-0.461,-0.395,-0.054,0.041,0.024
'0:00.497',-2.103,-2.058,0.045,2.080,-1.075,-1.006,-1.491,-1.021,-1.665,-1.345,-0.464,-0.399,-0.058,0.040,0.024
'0:00.498',-2.106,-2.060,0.045,2.083,-1.075,-1.007,-1.488,-1.020,-1.666,-1.349,-0.468,-0.403,-0.062,0.038,0.025
'0:00.499',-2.107,-2.061,0.045,2.084,-1.076,-1.008,-1.485,-1.018,-1.665,-1.351,-0.471,-0.405,-0.065,0.036,0.025
'0:00.500',-2.108,-2.062,0.046,2.086,-1.077,-1.008,-1.484,-1.019,-1.668,-1.351,-0.474,-0.408,-0.070,0.034,0.024
'0:00.501',-2.117,-2.071,0.045,2.095,-1.081,-1.013,-1.482,-1.027,-1.672,-1.357,-0.480,-0.415,-0.075,0.034,0.026
'0:00.502',-2.122,-2.072,0.050,2.097,-1.085,-1.012,-1.480,-1.024,-1.675,-1.363,-0.486,-0.420,-0.081,0.033,0.026
'0:00.503',-2.120,-2.070,0.050,2.095,-1.085,-1.010,-1.474,-1.023,-1.677,-1.366,-0.490,-0.423,-0.085,0.033,0.025
'0:00.504',-2.123,-2.072,0.051,2.098,-1.088,-1.010,-1.476,-1.030,-1.683,-1.371,-0.495,-0.429,-0.088,0.031,0.028
'0:00.505',-2.124,-2.068,0.057,2.096,-1.091,-1.006,-1.480,-1.030,-1.685,-1.375,-0.500,-0.432,-0.091,0.033,0.029
'0:00.506',-2.126,-2.070,0.056,2.098,-1.091,-1.007,-1.476,-1.032,-1.687,-1.378,-0.502,-0.435,-0.093,0.034,0.028
'0:00.507',-2.126,-2.071,0.054,2.098,-1.090,-1.008,-1.474,-1.034,-1.690,-1.381,-0.504,-0.438,-0.098,0.033,0.028
'0:00.508',-2.122,-2.067,0.054,2.095,-1.088,-1.006,-1.473,-1.034,-1.691,-1.383,-0.506,-0.440,-0.100,0.030,0.029
'0:00.509',-2.123,-2.070,0.053,2.096,-1.088,-1.008,-1.470,-1.033,-1.692,-1.384,-0.507,-0.443,-0.102,0.026,0.029
'0:00.510',-2.128,-2.074,0.054,2.102,-1.092,-1.010,-1.471,-1.036,-1.696,-1.389,-0.512,-0.447,-0.103,0.029,0.031
'0:00.511',-2.130,-2.075,0.056,2.103,-1.093,-1.010,-1.475,-1.037,-1.700,-1.391,-0.517,-0.452,-0.107,0.026,0.031
'0:00.512',-2.131,-2.078,0.054,2.104,-1.093,-1.011,-1.470,-1.036,-1.702,-1.395,-0.521,-0.458,-0.111,0.024,0.031
'0:00.513',-2.142,-2.088,0.053,2.115,-1.098,-1.016,-1.466,-1.040,-1.706,-1.403,-0.525,-0.462,-0.112,0.025,0.032
'0:00.514',-2.142,-2.092,0.049,2.117,-1.096,-1.022,-1.466,-1.036,-1.704,-1.401,-0.527,-0.463,-0.116,0.023,0.029
'0:00.515',-2.141,-2.094,0.047,2.118,-1.095,-1.023,-1.464,-1.035,-1.702,-1.397,-0.526,-0.461,-0.117,0.020,0.029
'0:00.516',-2.143,-2.095,0.048,2.119,-1.095,-1.023,-1.464,-1.038,-1.705,-1.400,-0.528,-0.463,-0.117,0.019,0.033
'0:00.517',-2.140,-2.092,0.049,2.116,-1.095,-1.022,-1.460,-1.036,-1.704,-1.403,-0.530,-0.467,-0.122,0.019,0.033
'0:00.518',-2.136,-2.089,0.048,2.113,-1.093,-1.020,-1.456,-1.031,-1.701,-1.402,-0.532,-0.468,-0.126,0.015,0.029
'0:00.519',-2.137,-2.086,0.051,2.111,-1.095,-1.017,-1.456,-1.032,-1.703,-1.402,-0.533,-0.468,-0.128,0.016,0.030
'0:00.520',-2.143,-2.090,0.053,2.117,-1.099,-1.018,-1.457,-1.036,-1.707,-1.405,-0.535,-0.470,-0.130,0.018,0.033
'0:00.521',-2.154,-2.103,0.051,2.128,-1.103,-1.026,-1.459,-1.038,-1.710,-1.410,-0.540,-0.476,-0.132,0.015,0.032
'0:00.522',-2.160,-2.108,0.052,2.134,-1.107,-1.028,-1.460,-1.040,-1.712,-1.413,-0.545,-0.478,-0.132,0.016,0.033
'0:00.523',-2.154,-2.103,0.051,2.128,-1.103,-1.026,-1.456,-1.038,-1.712,-1.415,-0.545,-0.479,-0.134,0.013,0.033
'0:00.524',-2.156,-2.106,0.051,2.131,-1.103,-1.028,-1.458,-1.042,-1.716,-1.419,-0.548,-0.482,-0.135,0.013,0.036
'0:00.525',-2.159,-2.108,0.051,2.134,-1.105,-1.029,-1.461,-1.045,-1.720,-1.423,-0.552,-0.485,-0.136,0.014,0.038
'0:00.526',-2.160,-2.111,0.050,2.135,-1.105,-1.030,-1.460,-1.046,-1.722,-1.425,-0.553,-0.488,-0.140,0.013,0.037
'0:00.527',-2.163,-2.114,0.050,2.138,-1.107,-1.032,-1.461,-1.048,-1.724,-1.428,-0.559,-0.490,-0.142,0.013,0.037
'0:00.528',-2.161,-2.114,0.048,2.137,-1.105,-1.032,-1.458,-1.049,-1.724,-1.429,-0.558,-0.489,-0.143,0.010,0.036
'0:00.529',-2.159,-2.114,0.044,2.136,-1.102,-1.034,-1.454,-1.045,-1.723,-1.429,-0.558,-0.487,-0.144,0.007,0.035
'0:00.530',-2.156,-2.112,0.044,2.135,-1.101,-1.034,-1.456,-1.044,-1.722,-1.429,-0.559,-0.487,-0.145,0.005,0.035
'0:00.531',-2.155,-2.110,0.044,2.132,-1.100,-1.032,-1.458,-1.044,-1.722,-1.431,-0.559,-0.488,-0.146,0.006,0.035
'0:00.532',-2.154,-2.109,0.045,2.131,-1.099,-1.032,-1.460,-1.044,-1.726,-1.431,-0.559,-0.489,-0.145,0.006,0.035
'0:00.533',-2.158,-2.109,0.048,2.133,-1.103,-1.030,-1.458,-1.050,-1.728,-1.429,-0.555,-0.486,-0.143,0.005,0.035
'0:00.534',-2.154,-2.110,0.043,2.132,-1.099,-1.033,-1.456,-1.045,-1.725,-1.431,-0.559,-0.486,-0.144,0.005,0.034
'0:00.535',-2.151,-2.114,0.037,2.132,-1.095,-1.038,-1.454,-1.044,-1.722,-1.431,-0.560,-0.486,-0.145,0.003,0.035
'0:00.536',-2.154,-2.116,0.037,2.135,-1.095,-1.040,-1.454,-1.046,-1.726,-1.430,-0.558,-0.486,-0.145,0.002,0.037
'0:00.537',-2.151,-2.118,0.034,2.135,-1.093,-1.042,-1.450,-1.042,-1.724,-1.428,-0.557,-0.485,-0.143,-0.001,0.037
'0:00.538',-2.148,-2.115,0.033,2.132,-1.091,-1.041,-1.448,-1.039,-1.720,-1.429,-0.556,-0.482,-0.144,-0.002,0.036
'0:00.539',-2.154,-2.118,0.036,2.135,-1.095,-1.040,-1.450,-1.043,-1.724,-1.429,-0.557,-0.482,-0.144,0.001,0.038
'0:00.540',-2.157,-2.119,0.037,2.138,-1.097,-1.040,-1.448,-1.042,-1.724,-1.427,-0.556,-0.482,-0.144,0.000,0.037
'0:00.541',-2.157,-2.123,0.035,2.140,-1.096,-1.044,-1.446,-1.039,-1.722,-1.426,-0.556,-0.481,-0.145,-0.003,0.037
'0:00.542',-2.166,-2.130,0.035,2.148,-1.101,-1.048,-1.446,-1.042,-1.724,-1.428,-0.558,-0.480,-0.144,-0.003,0.040
'0:00.543',-2.163,-2.127,0.035,2.145,-1.099,-1.046,-1.446,-1.038,-1.720,-1.427,-0.557,-0.479,-0.142,-0.003,0.038
'0:00.544',-2.160,-2.126,0.035,2.143,-1.097,-1.045,-1.446,-1.042,-1.722,-1.427,-0.558,-0.480,-0.143,-0.002,0.040
'0:00.545',-2.163,-2.127,0.035,2.145,-1.099,-1.046,-1.446,-1.044,-1.726,-1.431,-0.558,-0.482,-0.145,-0.001,0.041
'0:00.546',-2.162,-2.128,0.033,2.145,-1.097,-1.048,-1.444,-1.042,-1.724,-1.429,-0.559,-0.480,-0.146,-0.002,0.038
'0:00.547',-2.164,-2.133,0.032,2.149,-1.099,-1.050,-1.446,-1.044,-1.726,-1.431,-0.562,-0.483,-0.147,-0.003,0.039
'0:00.548',-2.166,-2.135,0.030,2.151,-1.099,-1.052,-1.446,-1.044,-1.728,-1.433,-0.562,-0.483,-0.147,-0.005,0.041
'0:00.549',-2.160,-2.133,0.027,2.147,-1.093,-1.052,-1.444,-1.042,-1.726,-1.431,-0.561,-0.481,-0.148,-0.007,0.041
'0:00.550',-2.161,-2.135,0.026,2.147,-1.094,-1.054,-1.448,-1.046,-1.730,-1.435,-0.565,-0.484,-0.149,-0.006,0.042
'0:00.551',-2.164,-2.137,0.027,2.151,-1.096,-1.054,-1.450,-1.047,-1.732,-1.437,-0.566,-0.486,-0.150,-0.006,0.041
'0:00.552',-2.163,-2.137,0.026,2.150,-1.095,-1.055,-1.447,-1.046,-1.730,-1.437,-0.565,-0.487,-0.152,-0.004,0.041
'0:00.553',-2.165,-2.138,0.028,2.151,-1.097,-1.055,-1.447,-1.046,-1.731,-1.437,-0.565,-0.486,-0.151,-0.004,0.041
'0:00.554',-2.162,-2.136,0.026,2.149,-1.095,-1.054,-1.446,-1.044,-1.730,-1.437,-0.562,-0.486,-0.152,-0.005,0.039
'0:00.555',-2.159,-2.135,0.024,2.147,-1.091,-1.056,-1.444,-1.044,-1.730,-1.433,-0.561,-0.484,-0.153,-0.006,0.039
'0:00.556',-2.159,-2.134,0.025,2.147,-1.093,-1.054,-1.443,-1.041,-1.726,-1.433,-0.560,-0.483,-0.154,-0.009,0.040
'0:00.557',-2.163,-2.138,0.026,2.151,-1.095,-1.056,-1.444,-1.042,-1.726,-1.434,-0.561,-0.486,-0.158,-0.007,0.038
'0:00.558',-2.167,-2.140,0.026,2.154,-1.097,-1.057,-1.444,-1.044,-1.729,-1.435,-0.562,-0.487,-0.158,-0.007,0.037
'0:00.559',-2.167,-2.137,0.029,2.152,-1.099,-1.054,-1.444,-1.044,-1.728,-1.435,-0.562,-0.488,-0.161,-0.006,0.038
'0:00.560',-2.170,-2.136,0.034,2.153,-1.102,-1.051,-1.444,-1.045,-1.731,-1.436,-0.565,-0.489,-0.160,-0.006,0.040
'0:00.561',-2.174,-2.140,0.034,2.156,-1.103,-1.053,-1.443,-1.041,-1.732,-1.439,-0.567,-0.491,-0.159,-0.007,0.040
'0:00.562',-2.178,-2.143,0.035,2.160,-1.107,-1.054,-1.446,-1.044,-1.732,-1.439,-0.567,-0.491,-0.159,-0.006,0.040
'0:00.563',-2.176,-2.142,0.035,2.159,-1.105,-1.053,-1.446,-1.050,-1.734,-1.440,-0.567,-0.492,-0.157,-0.007,0.040
'0:00.564',-2.176,-2.139,0.037,2.158,-1.107,-1.051,-1.443,-1.049,-1.734,-1.440,-0.567,-0.492,-0.158,-0.005,0.042
'0:00.565',-2.175,-2.136,0.039,2.155,-1.107,-1.048,-1.446,-1.048,-1.733,-1.440,-0.567,-0.492,-0.158,-0.003,0.041
'0:00.566',-2.171,-2.134,0.038,2.152,-1.105,-1.048,-1.446,-1.048,-1.733,-1.441,-0.567,-0.495,-0.160,-0.002,0.040
'0:00.567',-2.170,-2.131,0.039,2.151,-1.105,-1.046,-1.445,-1.050,-1.734,-1.440,-0.568,-0.495,-0.161,-0.002,0.042
'0:00.568',-2.171,-2.134,0.037,2.152,-1.105,-1.048,-1.448,-1.050,-1.736,-1.444,-0.569,-0.495,-0.159,-0.001,0.043
'0:00.569',-2.173,-2.138,0.035,2.155,-1.105,-1.051,-1.448,-1.050,-1.736,-1.446,-0.569,-0.497,-0.159,-0.002,0.042
'0:00.570',-2.172,-2.138,0.034,2.155,-1.103,-1.052,-1.449,-1.052,-1.736,-1.445,-0.570,-0.498,-0.160,-0.002,0.042
'0:00.571',-2.168,-2.134,0.035,2.151,-1.102,-1.049,-1.448,-1.049,-1.736,-1.444,-0.570,-0.497,-0.158,-0.004,0.043
'0:00.572',-2.167,-2.131,0.036,2.150,-1.102,-1.048,-1.446,-1.050,-1.736,-1.443,-0.571,-0.495,-0.157,-0.004,0.044
'0:00.573',-2.172,-2.135,0.037,2.154,-1.105,-1.048,-1.450,-1.054,-1.740,-1.444,-0.571,-0.497,-0.155,-0.002,0.045
'0:00.574',-2.171,-2.136,0.035,2.154,-1.103,-1.051,-1.452,-1.052,-1.738,-1.444,-0.569,-0.496,-0.152,-0.002,0.043
'0:00.575',-2.172,-2.141,0.031,2.156,-1.102,-1.054,-1.448,-1.050,-1.737,-1.444,-0.570,-0.496,-0.155,-0.004,0.044
'0:00.576',-2.175,-2.140,0.035,2.158,-1.105,-1.052,-1.446,-1.050,-1.738,-1.442,-0.570,-0.495,-0.155,-0.004,0.045
'0:00.577',-2.176,-2.143,0.034,2.159,-1.105,-1.054,-1.448,-1.051,-1.738,-1.444,-0.570,-0.494,-0.153,-0.005,0.045
'0:00.578',-2.177,-2.142,0.035,2.159,-1.107,-1.053,-1.450,-1.050,-1.740,-1.444,-0.572,-0.496,-0.153,-0.005,0.046
'0:00.579',-2.177,-2.140,0.037,2.159,-1.107,-1.051,-1.448,-1.052,-1.736,-1.442,-0.570,-0.493,-0.151,-0.004,0.045
'0:00.580',-2.177,-2.143,0.034,2.159,-1.106,-1.054,-1.447,-1.050,-1.734,-1.440,-0.570,-0.493,-0.152,-0.006,0.045
'0:00.581',-2.176,-2.144,0.032,2.160,-1.105,-1.056,-1.444,-1.048,-1.734,-1.440,-0.570,-0.491,-0.153,-0.009,0.045
'0:00.582',-2.176,-2.143,0.034,2.159,-1.105,-1.054,-1.440,-1.047,-1.734,-1.438,-0.569,-0.490,-0.155,-0.007,0.044
'0:00.583',-2.171,-2.136,0.035,2.154,-1.103,-1.050,-1.440,-1.046,-1.732,-1.438,-0.569,-0.490,-0.155,-0.006,0.044
'0:00.584',-2.168,-2.134,0.035,2.151,-1.101,-1.050,-1.441,-1.047,-1.735,-1.439,-0.571,-0.490,-0.154,-0.006,0.044
'0:00.585',-2.168,-2.133,0.035,2.151,-1.102,-1.048,-1.442,-1.048,-1.736,-1.442,-0.574,-0.492,-0.156,-0.005,0.046
'0:00.586',-2.169,-2.133,0.036,2.151,-1.103,-1.048,-1.439,-1.047,-1.734,-1.444,-0.575,-0.493,-0.158,-0.007,0.045
'0:00.587',-2.168,-2.134,0.035,2.151,-1.103,-1.049,-1.438,-1.048,-1.738,-1.443,-0.576,-0.492,-0.158,-0.008,0.044
'0:00.588',-2.165,-2.130,0.035,2.147,-1.101,-1.047,-1.442,-1.051,-1.738,-1.446,-0.579,-0.494,-0.159,-0.006,0.046
'0:00.589',-2.167,-2.131,0.035,2.150,-1.101,-1.048,-1.445,-1.054,-1.742,-1.448,-0.579,-0.496,-0.159,-0.006,0.047
'0:00.590',-2.171,-2.136,0.034,2.154,-1.103,-1.051,-1.447,-1.057,-1.744,-1.450,-0.582,-0.497,-0.158,-0.005,0.045
'0:00.591',-2.171,-2.137,0.034,2.154,-1.103,-1.052,-1.447,-1.057,-1.744,-1.450,-0.583,-0.498,-0.160,-0.006,0.044
'0:00.592',-2.174,-2.140,0.034,2.157,-1.104,-1.052,-1.446,-1.057,-1.745,-1.452,-0.586,-0.502,-0.162,-0.005,0.045
'0:00.593',-2.179,-2.144,0.034,2.162,-1.106,-1.056,-1.445,-1.060,-1.745,-1.454,-0.589,-0.504,-0.164,-0.005,0.044
'0:00.594',-2.177,-2.143,0.035,2.159,-1.106,-1.054,-1.446,-1.058,-1.743,-1.451,-0.586,-0.500,-0.163,-0.004,0.044
'0:00.595',-2.177,-2.144,0.033,2.160,-1.105,-1.056,-1.447,-1.056,-1.743,-1.452,-0.586,-0.502,-0.164,-0.004,0.043
'0:00.596',-2.182,-2.151,0.031,2.166,-1.107,-1.060,-1.448,-1.057,-1.744,-1.452,-0.587,-0.504,-0.166,-0.007,0.043
'0:00.597',-2.185,-2.155,0.030,2.170,-1.108,-1.062,-1.447,-1.056,-1.742,-1.450,-0.587,-0.504,-0.165,-0.007,0.043
'0:00.598',-2.184,-2.152,0.032,2.168,-1.108,-1.060,-1.446,-1.056,-1.744,-1.449,-0.587,-0.504,-0.166,-0.006,0.042
'0:00.599',-2.185,-2.151,0.034,2.168,-1.110,-1.058,-1.444,-1.055,-1.741,-1.450,-0.587,-0.505,-0.167,-0.004,0.042
'0:00.600',-2.187,-2.153,0.034,2.170,-1.111,-1.060,-1.444,-1.054,-1.740,-1.450,-0.590,-0.506,-0.169,-0.004,0.043
'0:00.601',-2.181,-2.150,0.032,2.165,-1.107,-1.058,-1.444,-1.052,-1.740,-1.448,-0.589,-0.505,-0.169,-0.004,0.043
'0:00.602',-2.178,-2.147,0.030,2.163,-1.105,-1.058,-1.445,-1.052,-1.738,-1.449,-0.587,-0.504,-0.167,-0.004,0.043
'0:00.603',-2.178,-2.144,0.033,2.161,-1.105,-1.056,-1.444,-1.052,-1.738,-1.448,-0.589,-0.503,-0.165,-0.003,0.045
'0:00.604',-2.179,-2.145,0.034,2.162,-1.107,-1.056,-1.442,-1.050,-1.738,-1.448,-0.589,-0.502,-0.165,-0.004,0.045
'0:00.605',-2.181,-2.147,0.035,2.163,-1.108,-1.056,-1.444,-1.053,-1.740,-1.450,-0.591,-0.504,-0.165,-0.003,0.045
'0:00.606',-2.178,-2.143,0.035,2.161,-1.107,-1.054,-1.443,-1.053,-1.740,-1.450,-0.591,-0.505,-0.166,-0.001,0.044
'0:00.607',-2.178,-2.143,0.034,2.160,-1.106,-1.054,-1.443,-1.053,-1.740,-1.451,-0.589,-0.505,-0.167,-0.003,0.043
'0:00.608',-2.178,-2.144,0.034,2.161,-1.106,-1.055,-1.444,-1.054,-1.742,-1.452,-0.591,-0.504,-0.166,-0.002,0.043
'0:00.609',-2.175,-2.143,0.032,2.159,-1.104,-1.056,-1.446,-1.056,-1.744,-1.455,-0.593,-0.506,-0.168,-0.003,0.043
'0:00.610',-2.179,-2.146,0.034,2.163,-1.107,-1.056,-1.448,-1.059,-1.745,-1.456,-0.596,-0.508,-0.169,-0.002,0.044
'0:00.611',-2.179,-2.145,0.034,2.162,-1.106,-1.056,-1.447,-1.056,-1.744,-1.454,-0.594,-0.508,-0.167,-0.002,0.043
'0:00.612',-2.179,-2.144,0.035,2.161,-1.107,-1.054,-1.446,-1.056,-1.742,-1.453,-0.595,-0.508,-0.166,-0.001,0.042
'0:00.613',-2.183,-2.147,0.036,2.164,-1.109,-1.055,-1.448,-1.058,-1.744,-1.452,-0.595,-0.508,-0.166,-0.001,0.042
'0:00.614',-2.180,-2.147,0.034,2.163,-1.107,-1.056,-1.446,-1.058,-1.746,-1.452,-0.594,-0.509,-0.166,-0.002,0.041
'0:00.615',-2.179,-2.147,0.032,2.163,-1.106,-1.057,-1.445,-1.056,-1.742,-1.452,-0.593,-0.507,-0.167,-0.001,0.041
'0:00.616',-2.175,-2.140,0.035,2.158,-1.105,-1.053,-1.448,-1.054,-1.742,-1.452,-0.592,-0.506,-0.166,-0.002,0.041
'0:00.617',-2.171,-2.135,0.036,2.152,-1.103,-1.049,-1.444,-1.054,-1.740,-1.450,-0.591,-0.505,-0.165,-0.002,0.042
'0:00.618',-2.170,-2.132,0.037,2.151,-1.104,-1.048,-1.443,-1.052,-1.741,-1.448,-0.588,-0.504,-0.163,0.002,0.042
'0:00.619',-2.171,-2.131,0.039,2.151,-1.105,-1.046,-1.444,-1.052,-1.740,-1.448,-0.587,-0.503,-0.162,0.002,0.041
'0:00.620',-2.175,-2.135,0.040,2.155,-1.107,-1.048,-1.444,-1.050,-1.739,-1.450,-0.589,-0.505,-0.164,0.000,0.042
'0:00.621',-2.182,-2.142,0.040,2.162,-1.111,-1.051,-1.442,-1.050,-1.741,-1.450,-0.593,-0.511,-0.168,-0.002,0.041
'0:00.622',-2.183,-2.143,0.040,2.163,-1.111,-1.052,-1.442,-1.052,-1.741,-1.450,-0.593,-0.511,-0.167,-0.002,0.040
'0:00.623',-2.186,-2.143,0.043,2.164,-1.115,-1.050,-1.444,-1.052,-1.740,-1.450,-0.594,-0.511,-0.167,0.001,0.040
'0:00.624',-2.189,-2.143,0.046,2.167,-1.118,-1.048,-1.446,-1.052,-1.742,-1.453,-0.597,-0.515,-0.170,0.004,0.042
'0:00.625',-2.188,-2.140,0.048,2.164,-1.117,-1.046,-1.448,-1.057,-1.744,-1.453,-0.597,-0.513,-0.167,0.007,0.044
'0:00.626',-2.188,-2.142,0.046,2.165,-1.117,-1.048,-1.450,-1.056,-1.743,-1.452,-0.595,-0.511,-0.167,0.006,0.043
'0:00.627',-2.189,-2.144,0.045,2.167,-1.117,-1.049,-1.448,-1.056,-1.742,-1.454,-0.596,-0.511,-0.167,0.007,0.043
'0:00.628',-2.188,-2.146,0.042,2.167,-1.115,-1.052,-1.448,-1.056,-1.742,-1.452,-0.595,-0.508,-0.164,0.006,0.044
'0:00.629',-2.183,-2.146,0.036,2.164,-1.109,-1.054,-1.448,-1.054,-1.740,-1.452,-0.594,-0.507,-0.165,0.003,0.044
'0:00.630',-2.180,-2.144,0.036,2.162,-1.109,-1.054,-1.446,-1.054,-1.740,-1.451,-0.594,-0.508,-0.166,0.003,0.043
'0:00.631',-2.180,-2.140,0.040,2.160,-1.110,-1.050,-1.445,-1.055,-1.742,-1.451,-0.593,-0.507,-0.165,0.003,0.044
'0:00.632',-2.182,-2.142,0.041,2.162,-1.111,-1.050,-1.449,-1.056,-1.742,-1.450,-0.593,-0.506,-0.165,0.004,0.044
'0:00.633',-2.181,-2.141,0.040,2.161,-1.111,-1.050,-1.449,-1.054,-1.742,-1.450,-0.593,-0.506,-0.167,0.003,0.046
'0:00.634',-2.176,-2.137,0.039,2.156,-1.107,-1.048,-1.448,-1.053,-1.742,-1.450,-0.592,-0.505,-0.168,0.000,0.046
'0:00.635',-2.175,-2.138,0.037,2.156,-1.107,-1.050,-1.447,-1.055,-1.742,-1.450,-0.592,-0.505,-0.170,-0.002,0.045
'0:00.636',-2.174,-2.138,0.036,2.156,-1.105,-1.050,-1.446,-1.054,-1.742,-1.449,-0.592,-0.505,-0.170,-0.002,0.043
'0:00.637',-2.174,-2.138,0.035,2.156,-1.105,-1.051,-1.444,-1.048,-1.738,-1.446,-0.592,-0.505,-0.170,-0.002,0.043
'0:00.638',-2.172,-2.135,0.037,2.154,-1.105,-1.048,-1.442,-1.048,-1.736,-1.446,-0.593,-0.506,-0.172,-0.002,0.043
'0:00.639',-2.172,-2.131,0.041,2.152,-1.107,-1.045,-1.444,-1.049,-1.738,-1.445,-0.592,-0.507,-0.171,0.002,0.043
'0:00.640',-2.170,-2.129,0.041,2.150,-1.105,-1.044,-1.443,-1.048,-1.736,-1.444,-0.590,-0.503,-0.168,0.001,0.044
'0:00.641',-2.171,-2.132,0.039,2.152,-1.105,-1.046,-1.440,-1.046,-1.734,-1.444,-0.589,-0.502,-0.169,-0.002,0.043
'0:00.642',-2.170,-2.131,0.038,2.151,-1.105,-1.046,-1.438,-1.043,-1.729,-1.441,-0.588,-0.501,-0.169,0.000,0.042
'0:00.643',-2.168,-2.128,0.040,2.148,-1.104,-1.044,-1.437,-1.045,-1.731,-1.440,-0.586,-0.498,-0.165,-0.001,0.043
'0:00.644',-2.174,-2.132,0.042,2.154,-1.108,-1.046,-1.438,-1.046,-1.734,-1.442,-0.588,-0.499,-0.166,0.001,0.043
'0:00.645',-2.175,-2.133,0.042,2.154,-1.108,-1.046,-1.438,-1.046,-1.732,-1.442,-0.589,-0.500,-0.166,0.002,0.043
'0:00.646',-2.175,-2.136,0.038,2.155,-1.107,-1.048,-1.437,-1.048,-1.734,-1.443,-0.590,-0.500,-0.166,0.002,0.041
'0:00.647',-2.177,-2.142,0.035,2.159,-1.107,-1.054,-1.438,-1.048,-1.734,-1.444,-0.591,-0.502,-0.167,0.000,0.041
'0:00.648',-2.180,-2.147,0.034,2.163,-1.107,-1.056,-1.441,-1.050,-1.736,-1.447,-0.593,-0.505,-0.169,0.000,0.042
'0:00.649',-2.183,-2.150,0.033,2.166,-1.108,-1.058,-1.442,-1.052,-1.736,-1.447,-0.593,-0.506,-0.167,0.001,0.044
'0:00.650',-2.180,-2.146,0.035,2.163,-1.107,-1.055,-1.442,-1.050,-1.736,-1.445,-0.590,-0.503,-0.166,0.001,0.044
'0:00.651',-2.178,-2.141,0.036,2.159,-1.107,-1.052,-1.441,-1.048,-1.734,-1.446,-0.590,-0.503,-0.166,0.001,0.043
'0:00.652',-2.183,-2.145,0.037,2.163,-1.110,-1.054,-1.444,-1.050,-1.736,-1.449,-0.592,-0.503,-0.165,0.001,0.044
'0:00.653',-2.186,-2.147,0.040,2.167,-1.113,-1.053,-1.444,-1.052,-1.736,-1.446,-0.589,-0.501,-0.163,0.001,0.043
'0:00.654',-2.180,-2.142,0.039,2.161,-1.110,-1.051,-1.440,-1.049,-1.732,-1.441,-0.587,-0.500,-0.165,0.000,0.043
'0:00.655',-2.177,-2.137,0.040,2.157,-1.109,-1.048,-1.438,-1.047,-1.732,-1.442,-0.588,-0.501,-0.167,-0.001,0.043
'0:00.656',-2.178,-2.137,0.040,2.158,-1.109,-1.048,-1.440,-1.047,-1.734,-1.444,-0.588,-0.502,-0.168,-0.002,0.044
'0:00.657',-2.178,-2.137,0.041,2.158,-1.110,-1.048,-1.440,-1.045,-1.733,-1.444,-0.587,-0.501,-0.167,-0.003,0.045
'0:00.658',-2.175,-2.131,0.044,2.153,-1.110,-1.043,-1.438,-1.044,-1.730,-1.442,-0.585,-0.499,-0.166,-0.002,0.044
'0:00.659',-2.174,-2.125,0.049,2.150,-1.111,-1.038,-1.435,-1.044,-1.728,-1.440,-0.586,-0.500,-0.169,-0.001,0.043
'0:00.660',-2.174,-2.123,0.050,2.148,-1.112,-1.036,-1.434,-1.044,-1.729,-1.442,-0.588,-0.502,-0.170,-0.001,0.044
'0:00.661',-2.182,-2.135,0.047,2.159,-1.115,-1.044,-1.436,-1.041,-1.729,-1.443,-0.590,-0.504,-0.171,-0.002,0.042
'0:00.662',-2.194,-2.144,0.050,2.169,-1.122,-1.046,-1.440,-1.045,-1.732,-1.442,-0.592,-0.505,-0.171,-0.001,0.042
'0:00.663',-2.195,-2.144,0.050,2.170,-1.123,-1.047,-1.442,-1.052,-1.736,-1.448,-0.594,-0.507,-0.172,-0.001,0.043
'0:00.664',-2.198,-2.144,0.054,2.171,-1.126,-1.044,-1.440,-1.051,-1.738,-1.450,-0.596,-0.509,-0.174,0.001,0.043
'0:00.665',-2.195,-2.139,0.056,2.167,-1.125,-1.042,-1.439,-1.052,-1.738,-1.446,-0.596,-0.508,-0.172,0.004,0.043
'0:00.666',-2.191,-2.137,0.053,2.164,-1.122,-1.042,-1.438,-1.050,-1.736,-1.445,-0.595,-0.504,-0.172,0.001,0.041
'0:00.667',-2.192,-2.137,0.054,2.164,-1.123,-1.041,-1.436,-1.046,-1.734,-1.443,-0.593,-0.502,-0.172,0.002,0.041
'0:00.668',-2.187,-2.134,0.052,2.160,-1.120,-1.040,-1.438,-1.048,-1.734,-1.443,-0.591,-0.500,-0.171,0.004,0.043
'0:00.669',-2.186,-2.130,0.056,2.158,-1.121,-1.037,-1.440,-1.048,-1.734,-1.444,-0.591,-0.500,-0.172,0.002,0.042
'0:00.670',-2.186,-2.130,0.056,2.158,-1.121,-1.037,-1.438,-1.046,-1.733,-1.442,-0.589,-0.496,-0.169,0.004,0.042
'0:00.671',-2.183,-2.127,0.054,2.155,-1.119,-1.036,-1.438,-1.046,-1.732,-1.442,-0.590,-0.496,-0.170,0.005,0.042
'0:00.672',-2.180,-2.124,0.056,2.152,-1.118,-1.034,-1.439,-1.046,-1.732,-1.442,-0.591,-0.500,-0.172,0.004,0.042
'0:00.673',-2.181,-2.122,0.059,2.151,-1.121,-1.030,-1.440,-1.046,-1.733,-1.442,-0.592,-0.500,-0.172,0.005,0.044
'0:00.674',-2.180,-2.123,0.058,2.151,-1.119,-1.032,-1.440,-1.046,-1.732,-1.443,-0.592,-0.501,-0.174,0.004,0.042
'0:00.675',-2.180,-2.124,0.056,2.152,-1.118,-1.034,-1.438,-1.044,-1.732,-1.444,-0.593,-0.502,-0.175,0.003,0.040
'0:00.676',-2.184,-2.127,0.058,2.155,-1.121,-1.034,-1.440,-1.047,-1.735,-1.444,-0.595,-0.505,-0.176,0.002,0.040
'0:00.677',-2.190,-2.133,0.057,2.162,-1.124,-1.038,-1.442,-1.048,-1.736,-1.444,-0.594,-0.504,-0.174,0.003,0.042
'0:00.678',-2.192,-2.133,0.059,2.163,-1.127,-1.036,-1.441,-1.048,-1.734,-1.445,-0.594,-0.503,-0.172,0.006,0.042
'0:00.679',-2.194,-2.132,0.062,2.163,-1.129,-1.034,-1.444,-1.050,-1.738,-1.446,-0.596,-0.505,-0.173,0.008,0.042
'0:00.680',-2.196,-2.134,0.063,2.165,-1.129,-1.035,-1.444,-1.050,-1.739,-1.446,-0.599,-0.505,-0.172,0.007,0.044
'0:00.681',-2.197,-2.138,0.059,2.167,-1.129,-1.039,-1.443,-1.050,-1.740,-1.447,-0.597,-0.507,-0.173,0.004,0.044
'0:00.682',-2.196,-2.135,0.060,2.166,-1.129,-1.037,-1.442,-1.048,-1.739,-1.444,-0.596,-0.504,-0.172,0.006,0.044
'0:00.683',-2.191,-2.132,0.059,2.162,-1.125,-1.036,-1.440,-1.047,-1.735,-1.442,-0.596,-0.501,-0.172,0.006,0.044
'0:00.684',-2.196,-2.135,0.060,2.166,-1.129,-1.037,-1.442,-1.051,-1.738,-1.444,-0.597,-0.500,-0.172,0.006,0.045
'0:00.685',-2.196,-2.131,0.065,2.164,-1.131,-1.033,-1.446,-1.052,-1.740,-1.446,-0.599,-0.501,-0.172,0.009,0.046
'0:00.686',-2.191,-2.132,0.058,2.162,-1.125,-1.037,-1.440,-1.049,-1.738,-1.446,-0.595,-0.501,-0.172,0.009,0.044
'0:00.687',-2.191,-2.137,0.054,2.164,-1.123,-1.042,-1.440,-1.048,-1.736,-1.445,-0.595,-0.500,-0.173,0.005,0.044
'0:00.688',-2.191,-2.140,0.051,2.166,-1.121,-1.044,-1.440,-1.050,-1.736,-1.446,-0.596,-0.501,-0.174,0.004,0.044
'0:00.689',-2.192,-2.144,0.048,2.168,-1.120,-1.048,-1.444,-1.051,-1.738,-1.448,-0.596,-0.502,-0.173,0.001,0.045
'0:00.690',-2.189,-2.140,0.049,2.165,-1.119,-1.046,-1.446,-1.052,-1.738,-1.447,-0.596,-0.502,-0.173,0.000,0.046
'0:00.691',-2.183,-2.132,0.051,2.158,-1.117,-1.040,-1.436,-1.048,-1.736,-1.444,-0.593,-0.500,-0.172,0.003,0.045
'0:00.692',-2.179,-2.127,0.051,2.153,-1.115,-1.038,-1.440,-1.049,-1.734,-1.442,-0.591,-0.499,-0.171,0.004,0.044
'0:00.693',-2.179,-2.129,0.050,2.154,-1.115,-1.040,-1.442,-1.053,-1.738,-1.442,-0.590,-0.498,-0.171,0.003,0.045
'0:00.694',-2.176,-2.130,0.047,2.153,-1.112,-1.041,-1.438,-1.046,-1.734,-1.438,-0.588,-0.497,-0.172,0.000,0.042
'0:00.695',-2.175,-2.131,0.043,2.154,-1.109,-1.044,-1.437,-1.046,-1.733,-1.438,-0.587,-0.499,-0.172,-0.002,0.040
'0:00.696',-2.175,-2.134,0.043,2.155,-1.109,-1.046,-1.438,-1.046,-1.734,-1.438,-0.586,-0.498,-0.173,-0.005,0.042
'0:00.697',-2.178,-2.131,0.045,2.155,-1.111,-1.043,-1.438,-1.044,-1.730,-1.436,-0.585,-0.496,-0.172,-0.006,0.041
'0:00.698',-2.176,-2.130,0.046,2.153,-1.111,-1.042,-1.434,-1.043,-1.728,-1.433,-0.582,-0.496,-0.172,-0.003,0.041
'0:00.699',-2.173,-2.128,0.044,2.151,-1.109,-1.042,-1.435,-1.040,-1.728,-1.433,-0.582,-0.496,-0.172,-0.003,0.042
'0:00.700',-2.174,-2.128,0.045,2.151,-1.110,-1.042,-1.436,-1.041,-1.729,-1.433,-0.584,-0.498,-0.173,-0.004,0.042
'0:00.701',-2.178,-2.131,0.047,2.155,-1.113,-1.042,-1.435,-1.043,-1.730,-1.435,-0.584,-0.499,-0.172,-0.004,0.043
'0:00.702',-2.180,-2.132,0.048,2.156,-1.115,-1.042,-1.437,-1.044,-1.731,-1.438,-0.584,-0.499,-0.173,-0.001,0.043
'0:00.703',-2.178,-2.130,0.048,2.154,-1.113,-1.042,-1.437,-1.046,-1.732,-1.438,-0.585,-0.499,-0.172,0.001,0.043
'0:00.704',-2.184,-2.134,0.051,2.159,-1.118,-1.041,-1.439,-1.050,-1.735,-1.444,-0.589,-0.502,-0.172,0.002,0.045
'0:00.705',-2.183,-2.128,0.056,2.155,-1.119,-1.036,-1.439,-1.050,-1.736,-1.444,-0.590,-0.502,-0.171,0.004,0.045
'0:00.706',-2.178,-2.123,0.055,2.151,-1.117,-1.034,-1.437,-1.049,-1.734,-1.440,-0.586,-0.498,-0.169,0.005,0.044
'0:00.707',-2.177,-2.122,0.056,2.150,-1.117,-1.032,-1.438,-1.050,-1.736,-1.442,-0.586,-0.500,-0.169,0.007,0.045
'0:00.708',-2.174,-2.120,0.054,2.147,-1.114,-1.032,-1.438,-1.051,-1.737,-1.442,-0.588,-0.501,-0.169,0.006,0.043
'0:00.709',-2.175,-2.125,0.050,2.150,-1.113,-1.038,-1.438,-1.052,-1.737,-1.444,-0.589,-0.501,-0.171,0.004,0.042
'0:00.710',-2.175,-2.127,0.048,2.151,-1.111,-1.040,-1.440,-1.053,-1.738,-1.444,-0.590,-0.503,-0.171,0.003,0.043
'0:00.711',-2.172,-2.124,0.048,2.148,-1.111,-1.038,-1.439,-1.051,-1.734,-1.441,-0.589,-0.501,-0.171,0.003,0.043
'0:00.712',-2.170,-2.122,0.049,2.146,-1.109,-1.036,-1.438,-1.050,-1.736,-1.440,-0.585,-0.501,-0.170,0.002,0.043
'0:00.713',-2.171,-2.123,0.048,2.147,-1.109,-1.038,-1.440,-1.052,-1.736,-1.439,-0.585,-0.501,-0.170,0.001,0.043
'0:00.714',-2.169,-2.124,0.045,2.147,-1.107,-1.039,-1.433,-1.049,-1.734,-1.439,-0.585,-0.502,-0.170,-0.001,0.043
'0:00.715',-2.170,-2.127,0.043,2.148,-1.107,-1.042,-1.433,-1.046,-1.736,-1.438,-0.584,-0.501,-0.169,-0.002,0.042
'0:00.716',-2.170,-2.126,0.044,2.148,-1.107,-1.040,-1.440,-1.046,-1.733,-1.433,-0.583,-0.498,-0.166,0.000,0.042
'0:00.717',-2.171,-2.126,0.044,2.148,-1.108,-1.040,-1.439,-1.046,-1.733,-1.433,-0.583,-0.498,-0.164,-0.002,0.043
'0:00.718',-2.171,-2.123,0.048,2.147,-1.109,-1.037,-1.437,-1.046,-1.732,-1.435,-0.583,-0.498,-0.164,0.001,0.044
'0:00.719',-2.172,-2.119,0.053,2.146,-1.113,-1.033,-1.438,-1.048,-1.732,-1.434,-0.584,-0.498,-0.164,0.004,0.044
'0:00.720',-2.174,-2.120,0.054,2.147,-1.115,-1.032,-1.438,-1.047,-1.732,-1.436,-0.584,-0.496,-0.163,0.004,0.045
'0:00.721',-2.173,-2.119,0.054,2.146,-1.113,-1.032,-1.435,-1.045,-1.732,-1.435,-0.581,-0.494,-0.165,0.004,0.044
'0:00.722',-2.169,-2.115,0.053,2.142,-1.111,-1.031,-1.433,-1.045,-1.732,-1.435,-0.582,-0.492,-0.166,0.003,0.045
'0:00.723',-2.156,-2.103,0.054,2.130,-1.105,-1.024,-1.431,-1.042,-1.728,-1.431,-0.579,-0.491,-0.168,0.003,0.044
'0:00.724',-2.159,-2.103,0.057,2.131,-1.108,-1.023,-1.431,-1.041,-1.728,-1.435,-0.582,-0.496,-0.172,0.003,0.046
'0:00.725',-2.166,-2.107,0.060,2.136,-1.113,-1.023,-1.435,-1.044,-1.731,-1.437,-0.585,-0.498,-0.172,0.004,0.047
'0:00.726',-2.167,-2.104,0.062,2.135,-1.115,-1.020,-1.436,-1.046,-1.732,-1.431,-0.579,-0.497,-0.170,0.006,0.044
'0:00.727',-2.167,-2.110,0.058,2.139,-1.113,-1.026,-1.433,-1.045,-1.734,-1.435,-0.581,-0.497,-0.172,0.004,0.045
'0:00.728',-2.167,-2.114,0.053,2.140,-1.111,-1.030,-1.431,-1.044,-1.730,-1.438,-0.585,-0.498,-0.173,0.002,0.045
'0:00.729',-2.164,-2.112,0.052,2.139,-1.109,-1.030,-1.434,-1.046,-1.730,-1.435,-0.581,-0.495,-0.170,0.002,0.045
'0:00.730',-2.160,-2.110,0.051,2.135,-1.105,-1.030,-1.433,-1.048,-1.732,-1.437,-0.579,-0.494,-0.170,0.002,0.046
'0:00.731',-2.159,-2.107,0.051,2.132,-1.105,-1.028,-1.432,-1.048,-1.730,-1.435,-0.578,-0.493,-0.169,0.002,0.046
'0:00.732',-2.156,-2.107,0.050,2.131,-1.103,-1.028,-1.433,-1.047,-1.730,-1.431,-0.576,-0.490,-0.167,0.001,0.046
'0:00.733',-2.160,-2.114,0.046,2.137,-1.103,-1.034,-1.433,-1.046,-1.730,-1.432,-0.578,-0.489,-0.169,0.001,0.047
'0:00.734',-2.159,-2.118,0.042,2.139,-1.101,-1.038,-1.431,-1.044,-1.728,-1.430,-0.576,-0.488,-0.168,-0.003,0.047
'0:00.735',-2.160,-2.123,0.037,2.142,-1.099,-1.042,-1.427,-1.042,-1.727,-1.429,-0.573,-0.490,-0.170,-0.006,0.044
'0:00.736',-2.161,-2.126,0.035,2.143,-1.099,-1.045,-1.429,-1.040,-1.727,-1.429,-0.574,-0.490,-0.169,-0.007,0.044
'0:00.737',-2.155,-2.121,0.035,2.138,-1.095,-1.043,-1.429,-1.040,-1.727,-1.429,-0.573,-0.489,-0.168,-0.007,0.046
'0:00.738',-2.154,-2.116,0.037,2.135,-1.096,-1.039,-1.428,-1.040,-1.724,-1.427,-0.573,-0.488,-0.168,-0.006,0.046
'0:00.739',-2.157,-2.116,0.041,2.136,-1.099,-1.037,-1.431,-1.042,-1.728,-1.429,-0.575,-0.489,-0.167,-0.005,0.046
'0:00.740',-2.163,-2.118,0.044,2.140,-1.104,-1.036,-1.434,-1.044,-1.731,-1.431,-0.576,-0.492,-0.169,-0.004,0.046
'0:00.741',-2.164,-2.120,0.044,2.142,-1.105,-1.038,-1.433,-1.044,-1.732,-1.432,-0.578,-0.492,-0.169,-0.004,0.046
'0:00.742',-2.162,-2.118,0.044,2.139,-1.103,-1.036,-1.433,-1.044,-1.732,-1.433,-0.579,-0.492,-0.169,-0.003,0.047
'0:00.743',-2.156,-2.111,0.045,2.133,-1.101,-1.032,-1.431,-1.044,-1.730,-1.431,-0.577,-0.490,-0.169,-0.003,0.046
'0:00.744',-2.158,-2.111,0.046,2.135,-1.103,-1.032,-1.428,-1.044,-1.730,-1.433,-0.579,-0.492,-0.171,-0.003,0.048
'0:00.745',-2.162,-2.110,0.052,2.136,-1.107,-1.029,-1.431,-1.044,-1.732,-1.435,-0.581,-0.494,-0.172,0.001,0.051
'0:00.746',-2.158,-2.106,0.052,2.132,-1.105,-1.026,-1.430,-1.046,-1.734,-1.435,-0.582,-0.494,-0.170,0.001,0.050
'0:00.747',-2.159,-2.107,0.052,2.133,-1.106,-1.027,-1.427,-1.045,-1.732,-1.435,-0.582,-0.495,-0.170,0.001,0.048
'0:00.748',-2.158,-2.106,0.052,2.132,-1.105,-1.027,-1.431,-1.048,-1.734,-1.438,-0.582,-0.494,-0.168,0.001,0.050
'0:00.749',-2.156,-2.106,0.050,2.131,-1.103,-1.028,-1.433,-1.050,-1.733,-1.438,-0.582,-0.492,-0.167,-0.001,0.050
'0:00.750',-2.159,-2.108,0.051,2.134,-1.105,-1.028,-1.434,-1.050,-1.736,-1.438,-0.581,-0.492,-0.166,-0.001,0.050
'0:00.751',-2.157,-2.106,0.051,2.131,-1.105,-1.027,-1.433,-1.050,-1.736,-1.435,-0.579,-0.491,-0.165,-0.001,0.050
'0:00.752',-2.151,-2.100,0.051,2.126,-1.101,-1.024,-1.425,-1.042,-1.728,-1.431,-0.575,-0.485,-0.163,0.001,0.050
'0:00.753',-2.151,-2.102,0.050,2.126,-1.101,-1.026,-1.425,-1.042,-1.730,-1.433,-0.573,-0.486,-0.163,0.003,0.050
'0:00.754',-2.153,-2.106,0.048,2.130,-1.101,-1.029,-1.430,-1.046,-1.728,-1.433,-0.574,-0.486,-0.161,0.001,0.050
'0:00.755',-2.158,-2.114,0.044,2.135,-1.101,-1.034,-1.430,-1.046,-1.730,-1.433,-0.574,-0.485,-0.161,-0.002,0.050
'0:00.756',-2.161,-2.119,0.042,2.140,-1.101,-1.038,-1.435,-1.048,-1.734,-1.435,-0.576,-0.488,-0.161,-0.002,0.051
'0:00.757',-2.164,-2.123,0.041,2.144,-1.103,-1.041,-1.438,-1.049,-1.736,-1.436,-0.577,-0.489,-0.160,-0.004,0.054
'0:00.758',-2.166,-2.123,0.042,2.144,-1.104,-1.040,-1.433,-1.049,-1.736,-1.436,-0.579,-0.490,-0.162,-0.004,0.052
'0:00.759',-2.162,-2.115,0.046,2.139,-1.105,-1.034,-1.429,-1.046,-1.733,-1.435,-0.576,-0.487,-0.164,0.000,0.050
'0:00.760',-2.158,-2.113,0.045,2.135,-1.101,-1.034,-1.428,-1.044,-1.730,-1.434,-0.573,-0.485,-0.164,-0.001,0.051
'0:00.761',-2.157,-2.113,0.044,2.135,-1.101,-1.034,-1.427,-1.044,-1.729,-1.433,-0.572,-0.483,-0.165,-0.001,0.052
'0:00.762',-2.158,-2.115,0.042,2.136,-1.100,-1.036,-1.426,-1.042,-1.730,-1.431,-0.574,-0.485,-0.167,-0.003,0.052
'0:00.763',-2.155,-2.116,0.038,2.135,-1.097,-1.038,-1.426,-1.041,-1.730,-1.431,-0.575,-0.486,-0.169,-0.004,0.052
'0:00.764',-2.157,-2.116,0.041,2.136,-1.099,-1.037,-1.426,-1.042,-1.732,-1.433,-0.576,-0.487,-0.168,-0.002,0.052
'0:00.765',-2.165,-2.123,0.042,2.144,-1.104,-1.040,-1.431,-1.050,-1.736,-1.437,-0.581,-0.491,-0.169,-0.002,0.053
'0:00.766',-2.171,-2.130,0.041,2.151,-1.106,-1.044,-1.433,-1.052,-1.738,-1.438,-0.582,-0.493,-0.169,-0.001,0.053
'0:00.767',-2.171,-2.134,0.036,2.152,-1.104,-1.048,-1.433,-1.052,-1.737,-1.440,-0.582,-0.493,-0.168,-0.001,0.053
'0:00.768',-2.168,-2.135,0.034,2.151,-1.101,-1.050,-1.434,-1.051,-1.738,-1.441,-0.583,-0.493,-0.168,-0.003,0.053
'0:00.769',-2.167,-2.133,0.034,2.150,-1.100,-1.050,-1.435,-1.050,-1.739,-1.442,-0.582,-0.493,-0.168,-0.004,0.053
'0:00.770',-2.167,-2.131,0.035,2.150,-1.102,-1.048,-1.435,-1.054,-1.739,-1.442,-0.583,-0.494,-0.168,-0.001,0.053
'0:00.771',-2.166,-2.129,0.036,2.147,-1.101,-1.046,-1.437,-1.054,-1.741,-1.442,-0.583,-0.496,-0.169,-0.001,0.052
'0:00.772',-2.163,-2.128,0.035,2.146,-1.099,-1.047,-1.437,-1.054,-1.740,-1.441,-0.583,-0.496,-0.168,-0.003,0.052
'0:00.773',-2.166,-2.130,0.035,2.148,-1.101,-1.047,-1.435,-1.053,-1.740,-1.442,-0.584,-0.497,-0.170,-0.003,0.051
'0:00.774',-2.163,-2.127,0.035,2.145,-1.099,-1.046,-1.433,-1.051,-1.738,-1.440,-0.582,-0.495,-0.171,-0.004,0.051
'0:00.775',-2.159,-2.127,0.032,2.143,-1.095,-1.047,-1.431,-1.049,-1.737,-1.436,-0.577,-0.495,-0.172,-0.008,0.049
'0:00.776',-2.160,-2.130,0.030,2.145,-1.095,-1.050,-1.433,-1.048,-1.737,-1.438,-0.579,-0.498,-0.175,-0.010,0.049
'0:00.777',-2.163,-2.130,0.032,2.146,-1.097,-1.048,-1.435,-1.049,-1.734,-1.439,-0.579,-0.497,-0.175,-0.010,0.050
'0:00.778',-2.163,-2.130,0.033,2.147,-1.099,-1.048,-1.431,-1.049,-1.734,-1.435,-0.578,-0.497,-0.174,-0.011,0.049
'0:00.779',-2.166,-2.130,0.036,2.148,-1.101,-1.046,-1.430,-1.048,-1.737,-1.435,-0.578,-0.496,-0.174,-0.009,0.049
'0:00.780',-2.167,-2.127,0.039,2.147,-1.103,-1.044,-1.432,-1.049,-1.735,-1.436,-0.578,-0.498,-0.173,-0.004,0.049
'0:00.781',-2.166,-2.128,0.037,2.147,-1.102,-1.046,-1.432,-1.050,-1.734,-1.438,-0.578,-0.498,-0.173,-0.004,0.049
'0:00.782',-2.163,-2.127,0.035,2.145,-1.099,-1.046,-1.431,-1.047,-1.734,-1.437,-0.576,-0.496,-0.173,-0.005,0.049
'0:00.783',-2.158,-2.123,0.035,2.141,-1.097,-1.044,-1.429,-1.045,-1.732,-1.435,-0.577,-0.495,-0.170,-0.006,0.049
'0:00.784',-2.162,-2.123,0.037,2.143,-1.100,-1.042,-1.432,-1.048,-1.734,-1.435,-0.577,-0.493,-0.168,-0.005,0.052
'0:00.785',-2.166,-2.124,0.042,2.144,-1.103,-1.041,-1.435,-1.052,-1.737,-1.437,-0.576,-0.493,-0.169,-0.002,0.053
'0:00.786',-2.166,-2.124,0.042,2.144,-1.104,-1.040,-1.432,-1.048,-1.736,-1.438,-0.575,-0.494,-0.171,-0.002,0.051
'0:00.787',-2.160,-2.123,0.038,2.142,-1.099,-1.042,-1.433,-1.046,-1.734,-1.438,-0.574,-0.495,-0.172,-0.004,0.050
'0:00.788',-2.160,-2.124,0.036,2.142,-1.099,-1.044,-1.434,-1.050,-1.734,-1.440,-0.575,-0.495,-0.169,-0.005,0.051
'0:00.789',-2.159,-2.124,0.035,2.142,-1.097,-1.044,-1.433,-1.048,-1.734,-1.439,-0.574,-0.495,-0.170,-0.006,0.051
'0:00.790',-2.158,-2.124,0.034,2.141,-1.096,-1.045,-1.433,-1.047,-1.736,-1.438,-0.573,-0.494,-0.169,-0.007,0.051
'0:00.791',-2.154,-2.121,0.033,2.138,-1.093,-1.044,-1.433,-1.048,-1.734,-1.436,-0.571,-0.492,-0.169,-0.006,0.051
'0:00.792',-2.147,-2.116,0.032,2.131,-1.089,-1.042,-1.434,-1.046,-1.735,-1.437,-0.571,-0.492,-0.169,-0.005,0.052
'0:00.793',-2.151,-2.118,0.035,2.135,-1.093,-1.042,-1.435,-1.050,-1.736,-1.438,-0.572,-0.493,-0.168,-0.004,0.053
'0:00.794',-2.151,-2.118,0.033,2.134,-1.092,-1.042,-1.433,-1.048,-1.734,-1.437,-0.572,-0.492,-0.168,-0.005,0.052
'0:00.795',-2.147,-2.116,0.031,2.131,-1.089,-1.042,-1.433,-1.046,-1.734,-1.435,-0.571,-0.492,-0.169,-0.007,0.052
'0:00.796',-2.147,-2.115,0.032,2.131,-1.089,-1.041,-1.431,-1.046,-1.732,-1.435,-0.570,-0.493,-0.170,-0.008,0.053
'0:00.797',-2.143,-2.111,0.033,2.127,-1.088,-1.039,-1.433,-1.046,-1.732,-1.434,-0.570,-0.493,-0.169,-0.009,0.052
'0:00.798',-2.143,-2.108,0.035,2.126,-1.089,-1.036,-1.431,-1.046,-1.732,-1.435,-0.572,-0.493,-0.170,-0.007,0.053
'0:00.799',-2.143,-2.106,0.037,2.124,-1.091,-1.034,-1.430,-1.044,-1.734,-1.436,-0.572,-0.494,-0.169,-0.005,0.053
'0:00.800',-2.142,-2.103,0.039,2.122,-1.091,-1.032,-1.431,-1.046,-1.732,-1.435,-0.571,-0.495,-0.170,-0.005,0.052
'0:00.801',-2.144,-2.104,0.041,2.124,-1.093,-1.032,-1.428,-1.044,-1.731,-1.433,-0.569,-0.495,-0.170,-0.006,0.052
'0:00.802',-2.146,-2.106,0.041,2.126,-1.093,-1.032,-1.429,-1.043,-1.730,-1.431,-0.567,-0.492,-0.167,-0.004,0.054
'0:00.803',-2.142,-2.102,0.041,2.122,-1.091,-1.030,-1.429,-1.043,-1.732,-1.433,-0.570,-0.493,-0.167,-0.004,0.054
'0:00.804',-2.142,-2.102,0.040,2.122,-1.091,-1.030,-1.427,-1.042,-1.732,-1.433,-0.571,-0.495,-0.168,-0.005,0.053
'0:00.805',-2.143,-2.103,0.041,2.123,-1.093,-1.030,-1.430,-1.044,-1.732,-1.435,-0.573,-0.494,-0.168,-0.004,0.056
'0:00.806',-2.148,-2.103,0.045,2.126,-1.097,-1.028,-1.429,-1.046,-1.734,-1.435,-0.574,-0.496,-0.168,-0.002,0.056
'0:00.807',-2.150,-2.103,0.048,2.126,-1.099,-1.027,-1.427,-1.047,-1.734,-1.437,-0.574,-0.496,-0.169,-0.001,0.054
'0:00.808',-2.148,-2.104,0.044,2.127,-1.097,-1.030,-1.430,-1.048,-1.736,-1.438,-0.574,-0.497,-0.168,-0.002,0.053
'0:00.809',-2.147,-2.108,0.040,2.128,-1.094,-1.034,-1.433,-1.048,-1.736,-1.437,-0.574,-0.498,-0.167,-0.004,0.051
'0:00.810',-2.147,-2.109,0.038,2.128,-1.093,-1.035,-1.433,-1.051,-1.738,-1.440,-0.577,-0.499,-0.168,-0.006,0.053
'0:00.811',-2.143,-2.103,0.040,2.123,-1.091,-1.032,-1.433,-1.052,-1.738,-1.440,-0.577,-0.498,-0.168,-0.006,0.054
'0:00.812',-2.140,-2.100,0.040,2.119,-1.090,-1.030,-1.428,-1.048,-1.735,-1.439,-0.576,-0.497,-0.170,-0.005,0.051
'0:00.813',-2.140,-2.099,0.041,2.120,-1.091,-1.029,-1.429,-1.046,-1.736,-1.437,-0.575,-0.497,-0.172,-0.005,0.051
'0:00.814',-2.133,-2.094,0.040,2.114,-1.087,-1.027,-1.429,-1.046,-1.734,-1.433,-0.571,-0.495,-0.170,-0.006,0.051
'0:00.815',-2.128,-2.091,0.037,2.110,-1.083,-1.027,-1.427,-1.044,-1.732,-1.434,-0.569,-0.495,-0.171,-0.007,0.051
'0:00.816',-2.129,-2.092,0.037,2.111,-1.083,-1.027,-1.426,-1.044,-1.731,-1.435,-0.569,-0.494,-0.170,-0.006,0.054
'0:00.817',-2.132,-2.092,0.041,2.112,-1.087,-1.026,-1.426,-1.045,-1.732,-1.435,-0.572,-0.498,-0.171,-0.003,0.053
'0:00.818',-2.133,-2.092,0.041,2.113,-1.087,-1.026,-1.427,-1.044,-1.732,-1.435,-0.573,-0.498,-0.172,-0.003,0.052
'0:00.819',-2.134,-2.092,0.042,2.114,-1.088,-1.026,-1.427,-1.043,-1.732,-1.435,-0.572,-0.495,-0.170,-0.004,0.051
'0:00.820',-2.140,-2.098,0.042,2.119,-1.091,-1.028,-1.432,-1.046,-1.734,-1.437,-0.575,-0.498,-0.171,-0.004,0.055
'0:00.821',-2.146,-2.106,0.040,2.126,-1.093,-1.033,-1.433,-1.049,-1.736,-1.437,-0.576,-0.499,-0.172,-0.006,0.054
'0:00.822',-2.147,-2.107,0.040,2.127,-1.093,-1.034,-1.429,-1.046,-1.734,-1.434,-0.576,-0.498,-0.173,-0.005,0.051
'0:00.823',-2.143,-2.107,0.036,2.124,-1.089,-1.035,-1.427,-1.046,-1.732,-1.433,-0.576,-0.498,-0.174,-0.006,0.052
'0:00.824',-2.140,-2.104,0.036,2.122,-1.088,-1.034,-1.428,-1.047,-1.733,-1.434,-0.576,-0.497,-0.174,-0.007,0.053
'0:00.825',-2.139,-2.102,0.036,2.120,-1.087,-1.032,-1.431,-1.048,-1.736,-1.437,-0.577,-0.498,-0.174,-0.006,0.056
'0:00.826',-2.151,-2.109,0.042,2.130,-1.097,-1.034,-1.433,-1.050,-1.736,-1.438,-0.578,-0.500,-0.174,-0.002,0.056
'0:00.827',-2.156,-2.115,0.041,2.135,-1.099,-1.037,-1.433,-1.052,-1.738,-1.440,-0.581,-0.502,-0.174,-0.001,0.054
'0:00.828',-2.151,-2.117,0.034,2.134,-1.093,-1.042,-1.435,-1.054,-1.742,-1.442,-0.583,-0.504,-0.174,-0.003,0.054
'0:00.829',-2.147,-2.116,0.031,2.131,-1.089,-1.042,-1.433,-1.051,-1.740,-1.440,-0.580,-0.502,-0.173,-0.004,0.056
'0:00.830',-2.144,-2.116,0.029,2.131,-1.087,-1.044,-1.434,-1.052,-1.740,-1.440,-0.579,-0.501,-0.172,-0.007,0.057
'0:00.831',-2.145,-2.115,0.029,2.130,-1.087,-1.042,-1.436,-1.052,-1.741,-1.440,-0.580,-0.504,-0.172,-0.005,0.057
'0:00.832',-2.141,-2.112,0.029,2.127,-1.085,-1.041,-1.434,-1.050,-1.740,-1.441,-0.580,-0.503,-0.171,-0.005,0.057
'0:00.833',-2.142,-2.111,0.031,2.126,-1.087,-1.040,-1.436,-1.052,-1.738,-1.441,-0.580,-0.502,-0.170,-0.006,0.058
'0:00.834',-2.139,-2.110,0.029,2.124,-1.084,-1.040,-1.434,-1.049,-1.736,-1.437,-0.577,-0.502,-0.172,-0.007,0.058
'0:00.835',-2.134,-2.107,0.026,2.120,-1.080,-1.040,-1.432,-1.046,-1.736,-1.435,-0.575,-0.501,-0.172,-0.007,0.056
'0:00.836',-2.132,-2.106,0.026,2.119,-1.079,-1.040,-1.435,-1.048,-1.737,-1.436,-0.575,-0.500,-0.170,-0.009,0.058
'0:00.837',-2.132,-2.106,0.027,2.119,-1.080,-1.039,-1.433,-1.048,-1.738,-1.435,-0.576,-0.498,-0.170,-0.010,0.057
'0:00.838',-2.134,-2.103,0.030,2.118,-1.082,-1.036,-1.431,-1.048,-1.736,-1.434,-0.574,-0.498,-0.168,-0.008,0.057
'0:00.839',-2.136,-2.103,0.033,2.120,-1.085,-1.035,-1.431,-1.048,-1.735,-1.433,-0.573,-0.498,-0.169,-0.009,0.057
'0:00.840',-2.135,-2.102,0.034,2.119,-1.085,-1.034,-1.429,-1.048,-1.738,-1.436,-0.574,-0.499,-0.169,-0.007,0.056
'0:00.841',-2.136,-2.106,0.030,2.122,-1.084,-1.038,-1.431,-1.046,-1.736,-1.435,-0.574,-0.499,-0.169,-0.010,0.056
'0:00.842',-2.138,-2.105,0.033,2.121,-1.085,-1.036,-1.430,-1.046,-1.735,-1.435,-0.574,-0.498,-0.170,-0.011,0.056
'0:00.843',-2.132,-2.097,0.035,2.115,-1.084,-1.031,-1.429,-1.044,-1.734,-1.433,-0.572,-0.498,-0.169,-0.009,0.054
'0:00.844',-2.133,-2.095,0.037,2.114,-1.085,-1.029,-1.429,-1.045,-1.732,-1.433,-0.572,-0.498,-0.169,-0.009,0.053
'0:00.845',-2.134,-2.094,0.040,2.114,-1.087,-1.026,-1.430,-1.050,-1.735,-1.433,-0.574,-0.499,-0.169,-0.007,0.055
'0:00.846',-2.140,-2.099,0.042,2.119,-1.091,-1.028,-1.431,-1.048,-1.737,-1.435,-0.574,-0.497,-0.168,-0.005,0.055
'0:00.847',-2.139,-2.095,0.043,2.118,-1.092,-1.026,-1.433,-1.049,-1.738,-1.435,-0.573,-0.495,-0.166,-0.004,0.055
'0:00.848',-2.134,-2.091,0.042,2.112,-1.088,-1.024,-1.434,-1.052,-1.739,-1.435,-0.573,-0.495,-0.167,-0.004,0.055
'0:00.849',-2.131,-2.092,0.040,2.111,-1.086,-1.026,-1.430,-1.050,-1.738,-1.438,-0.574,-0.496,-0.167,-0.004,0.054
'0:00.850',-2.128,-2.092,0.037,2.111,-1.083,-1.028,-1.429,-1.050,-1.738,-1.438,-0.575,-0.496,-0.166,-0.007,0.053
'0:00.851',-2.124,-2.090,0.034,2.107,-1.079,-1.028,-1.428,-1.050,-1.736,-1.435,-0.573,-0.495,-0.166,-0.009,0.053
'0:00.852',-2.127,-2.091,0.036,2.108,-1.081,-1.027,-1.429,-1.049,-1.737,-1.435,-0.575,-0.496,-0.166,-0.007,0.055
'0:00.853',-2.138,-2.100,0.038,2.119,-1.089,-1.030,-1.435,-1.052,-1.740,-1.438,-0.576,-0.499,-0.166,-0.006,0.056
'0:00.854',-2.136,-2.100,0.036,2.119,-1.087,-1.032,-1.437,-1.052,-1.740,-1.439,-0.576,-0.500,-0.166,-0.006,0.054
'0:00.855',-2.136,-2.103,0.034,2.119,-1.085,-1.034,-1.435,-1.050,-1.739,-1.437,-0.579,-0.500,-0.169,-0.007,0.053
'0:00.856',-2.143,-2.108,0.034,2.126,-1.089,-1.037,-1.438,-1.052,-1.741,-1.438,-0.579,-0.500,-0.168,-0.009,0.054
'0:00.857',-2.144,-2.111,0.034,2.127,-1.089,-1.038,-1.438,-1.056,-1.743,-1.442,-0.582,-0.502,-0.171,-0.011,0.054
'0:00.858',-2.148,-2.113,0.035,2.130,-1.091,-1.038,-1.437,-1.051,-1.740,-1.440,-0.584,-0.505,-0.174,-0.011,0.052
'0:00.859',-2.150,-2.113,0.037,2.131,-1.093,-1.038,-1.435,-1.050,-1.742,-1.441,-0.584,-0.507,-0.175,-0.010,0.052
'0:00.860',-2.147,-2.110,0.037,2.128,-1.093,-1.036,-1.435,-1.052,-1.740,-1.439,-0.583,-0.507,-0.175,-0.011,0.052
'0:00.861',-2.147,-2.108,0.038,2.127,-1.093,-1.034,-1.428,-1.049,-1.736,-1.438,-0.582,-0.506,-0.175,-0.012,0.051
'0:00.862',-2.149,-2.109,0.041,2.129,-1.095,-1.034,-1.429,-1.048,-1.737,-1.438,-0.582,-0.504,-0.173,-0.011,0.052
'0:00.863',-2.145,-2.108,0.037,2.127,-1.091,-1.035,-1.432,-1.044,-1.732,-1.433,-0.581,-0.503,-0.172,-0.013,0.051
'0:00.864',-2.143,-2.103,0.041,2.123,-1.092,-1.030,-1.431,-1.048,-1.736,-1.437,-0.582,-0.502,-0.172,-0.011,0.054
'0:00.865',-2.144,-2.098,0.045,2.121,-1.095,-1.026,-1.435,-1.054,-1.742,-1.438,-0.580,-0.500,-0.170,-0.007,0.057
'0:00.866',-2.145,-2.102,0.043,2.123,-1.095,-1.029,-1.435,-1.053,-1.740,-1.440,-0.580,-0.501,-0.172,-0.007,0.053
'0:00.867',-2.143,-2.099,0.044,2.120,-1.093,-1.027,-1.432,-1.051,-1.739,-1.440,-0.580,-0.500,-0.172,-0.004,0.054
'0:00.868',-2.138,-2.094,0.043,2.116,-1.091,-1.025,-1.431,-1.050,-1.737,-1.438,-0.577,-0.497,-0.169,-0.003,0.054
'0:00.869',-2.142,-2.100,0.042,2.122,-1.092,-1.030,-1.431,-1.052,-1.742,-1.441,-0.580,-0.500,-0.171,-0.005,0.054
'0:00.870',-2.146,-2.106,0.040,2.126,-1.093,-1.032,-1.436,-1.055,-1.746,-1.445,-0.581,-0.503,-0.173,-0.006,0.053
'0:00.871',-2.147,-2.107,0.042,2.127,-1.095,-1.032,-1.440,-1.056,-1.744,-1.446,-0.581,-0.501,-0.171,-0.002,0.051
'0:00.872',-2.146,-2.103,0.043,2.124,-1.095,-1.030,-1.441,-1.057,-1.746,-1.447,-0.583,-0.501,-0.169,-0.004,0.051
'0:00.873',-2.148,-2.106,0.043,2.127,-1.096,-1.030,-1.440,-1.058,-1.747,-1.446,-0.580,-0.499,-0.167,-0.004,0.053
'0:00.874',-2.148,-2.107,0.041,2.127,-1.095,-1.032,-1.438,-1.054,-1.745,-1.444,-0.581,-0.499,-0.168,-0.004,0.052
'0:00.875',-2.144,-2.108,0.035,2.126,-1.090,-1.036,-1.435,-1.050,-1.742,-1.442,-0.579,-0.497,-0.165,-0.009,0.051
'0:00.876',-2.147,-2.112,0.035,2.130,-1.091,-1.038,-1.437,-1.052,-1.743,-1.440,-0.575,-0.494,-0.162,-0.009,0.051
'0:00.877',-2.146,-2.110,0.036,2.127,-1.091,-1.036,-1.438,-1.052,-1.743,-1.440,-0.577,-0.494,-0.162,-0.011,0.052
'0:00.878',-2.147,-2.108,0.038,2.127,-1.093,-1.034,-1.436,-1.050,-1.740,-1.438,-0.577,-0.494,-0.161,-0.011,0.052
'0:00.879',-2.147,-2.107,0.040,2.127,-1.093,-1.034,-1.433,-1.049,-1.739,-1.438,-0.577,-0.495,-0.163,-0.011,0.051
'0:00.880',-2.147,-2.106,0.041,2.126,-1.093,-1.032,-1.432,-1.046,-1.740,-1.438,-0.577,-0.495,-0.164,-0.011,0.051
'0:00.881',-2.147,-2.104,0.043,2.126,-1.095,-1.031,-1.434,-1.050,-1.740,-1.438,-0.576,-0.495,-0.163,-0.009,0.055
'0:00.882',-2.147,-2.104,0.043,2.126,-1.095,-1.030,-1.435,-1.050,-1.738,-1.438,-0.574,-0.494,-0.164,-0.007,0.054
'0:00.883',-2.145,-2.104,0.041,2.124,-1.093,-1.032,-1.431,-1.048,-1.736,-1.437,-0.575,-0.494,-0.165,-0.009,0.053
'0:00.884',-2.150,-2.107,0.043,2.128,-1.097,-1.032,-1.431,-1.048,-1.736,-1.439,-0.576,-0.496,-0.166,-0.006,0.054
'0:00.885',-2.150,-2.105,0.044,2.127,-1.097,-1.030,-1.433,-1.050,-1.738,-1.440,-0.576,-0.494,-0.166,-0.004,0.053
'0:00.886',-2.147,-2.103,0.044,2.126,-1.096,-1.029,-1.435,-1.054,-1.740,-1.440,-0.575,-0.494,-0.167,-0.006,0.053
'0:00.887',-2.155,-2.105,0.050,2.130,-1.103,-1.027,-1.436,-1.053,-1.742,-1.442,-0.576,-0.494,-0.167,-0.003,0.052
'0:00.888',-2.152,-2.104,0.048,2.128,-1.101,-1.028,-1.434,-1.050,-1.740,-1.442,-0.575,-0.493,-0.168,-0.004,0.051
'0:00.889',-2.148,-2.108,0.041,2.128,-1.095,-1.034,-1.437,-1.053,-1.740,-1.438,-0.572,-0.491,-0.166,-0.005,0.051
'0:00.890',-2.150,-2.113,0.037,2.131,-1.094,-1.038,-1.435,-1.052,-1.740,-1.438,-0.572,-0.491,-0.166,-0.005,0.052
'0:00.891',-2.149,-2.110,0.040,2.129,-1.095,-1.034,-1.431,-1.048,-1.736,-1.435,-0.570,-0.487,-0.168,-0.005,0.052
'0:00.892',-2.147,-2.107,0.040,2.127,-1.093,-1.033,-1.432,-1.048,-1.738,-1.435,-0.571,-0.486,-0.165,-0.004,0.056
'0:00.893',-2.149,-2.112,0.037,2.131,-1.093,-1.037,-1.436,-1.050,-1.738,-1.435,-0.572,-0.487,-0.168,-0.007,0.056
'0:00.894',-2.150,-2.114,0.036,2.131,-1.093,-1.038,-1.435,-1.048,-1.737,-1.435,-0.570,-0.485,-0.167,-0.008,0.055
'0:00.895',-2.147,-2.115,0.032,2.131,-1.090,-1.042,-1.432,-1.046,-1.736,-1.435,-0.571,-0.487,-0.168,-0.010,0.056
'0:00.896',-2.150,-2.118,0.032,2.134,-1.091,-1.043,-1.433,-1.048,-1.736,-1.435,-0.570,-0.487,-0.170,-0.013,0.057
'0:00.897',-2.147,-2.116,0.031,2.132,-1.089,-1.042,-1.433,-1.046,-1.736,-1.435,-0.568,-0.485,-0.167,-0.013,0.058
'0:00.898',-2.144,-2.112,0.032,2.128,-1.088,-1.040,-1.429,-1.044,-1.732,-1.433,-0.568,-0.483,-0.166,-0.013,0.057
'0:00.899',-2.144,-2.108,0.035,2.126,-1.090,-1.036,-1.423,-1.041,-1.730,-1.429,-0.565,-0.482,-0.167,-0.013,0.056
'0:00.900',-2.142,-2.109,0.034,2.125,-1.087,-1.038,-1.423,-1.037,-1.728,-1.425,-0.564,-0.481,-0.166,-0.016,0.056
'0:00.901',-2.145,-2.113,0.032,2.129,-1.089,-1.040,-1.427,-1.039,-1.728,-1.428,-0.565,-0.482,-0.166,-0.017,0.057
'0:00.902',-2.152,-2.123,0.030,2.138,-1.091,-1.046,-1.424,-1.040,-1.730,-1.431,-0.566,-0.483,-0.167,-0.018,0.056
'0:00.903',-2.150,-2.119,0.030,2.135,-1.091,-1.044,-1.425,-1.041,-1.730,-1.431,-0.569,-0.485,-0.167,-0.016,0.055
'0:00.904',-2.150,-2.115,0.035,2.132,-1.093,-1.040,-1.429,-1.044,-1.732,-1.433,-0.569,-0.488,-0.167,-0.012,0.057
'0:00.905',-2.149,-2.112,0.037,2.131,-1.093,-1.038,-1.429,-1.045,-1.733,-1.431,-0.568,-0.486,-0.163,-0.011,0.059
'0:00.906',-2.148,-2.111,0.037,2.130,-1.093,-1.036,-1.429,-1.044,-1.733,-1.433,-0.572,-0.490,-0.166,-0.010,0.058
'0:00.907',-2.156,-2.119,0.038,2.137,-1.097,-1.040,-1.432,-1.048,-1.734,-1.436,-0.576,-0.496,-0.169,-0.011,0.056
'0:00.908',-2.158,-2.119,0.038,2.139,-1.098,-1.040,-1.433,-1.050,-1.737,-1.438,-0.576,-0.497,-0.169,-0.011,0.056
'0:00.909',-2.155,-2.117,0.037,2.136,-1.096,-1.040,-1.435,-1.049,-1.736,-1.440,-0.576,-0.497,-0.169,-0.009,0.056
'0:00.910',-2.152,-2.118,0.035,2.135,-1.093,-1.042,-1.435,-1.050,-1.737,-1.439,-0.576,-0.496,-0.167,-0.011,0.056
'0:00.911',-2.149,-2.114,0.035,2.131,-1.093,-1.040,-1.435,-1.051,-1.740,-1.440,-0.577,-0.497,-0.168,-0.011,0.056
'0:00.912',-2.147,-2.110,0.037,2.128,-1.092,-1.036,-1.436,-1.051,-1.738,-1.441,-0.576,-0.495,-0.167,-0.008,0.057
'0:00.913',-2.147,-2.110,0.037,2.128,-1.093,-1.036,-1.435,-1.051,-1.738,-1.440,-0.576,-0.494,-0.167,-0.007,0.056
'0:00.914',-2.147,-2.108,0.038,2.127,-1.093,-1.035,-1.434,-1.048,-1.738,-1.437,-0.575,-0.494,-0.167,-0.009,0.055
'0:00.915',-2.143,-2.107,0.036,2.124,-1.089,-1.035,-1.433,-1.046,-1.735,-1.436,-0.575,-0.493,-0.168,-0.011,0.054
'0:00.916',-2.143,-2.109,0.034,2.126,-1.089,-1.038,-1.433,-1.048,-1.736,-1.435,-0.575,-0.493,-0.168,-0.013,0.054
'0:00.917',-2.141,-2.106,0.035,2.123,-1.088,-1.036,-1.433,-1.047,-1.734,-1.434,-0.572,-0.490,-0.167,-0.013,0.056
'0:00.918',-2.133,-2.099,0.035,2.116,-1.084,-1.032,-1.429,-1.041,-1.730,-1.431,-0.569,-0.488,-0.166,-0.013,0.053
'0:00.919',-2.136,-2.102,0.035,2.119,-1.086,-1.033,-1.428,-1.040,-1.728,-1.429,-0.569,-0.487,-0.166,-0.015,0.054
'0:00.920',-2.142,-2.106,0.036,2.124,-1.089,-1.034,-1.431,-1.046,-1.733,-1.431,-0.571,-0.491,-0.167,-0.013,0.057
'0:00.921',-2.145,-2.110,0.035,2.127,-1.091,-1.037,-1.429,-1.046,-1.732,-1.431,-0.570,-0.488,-0.166,-0.014,0.056
'0:00.922',-2.150,-2.117,0.033,2.134,-1.091,-1.042,-1.429,-1.045,-1.730,-1.431,-0.569,-0.487,-0.164,-0.016,0.054
'0:00.923',-2.143,-2.111,0.032,2.127,-1.087,-1.039,-1.429,-1.044,-1.730,-1.431,-0.569,-0.487,-0.166,-0.013,0.054
'0:00.924',-2.139,-2.107,0.032,2.123,-1.085,-1.038,-1.427,-1.043,-1.728,-1.431,-0.568,-0.483,-0.165,-0.013,0.057
'0:00.925',-2.143,-2.110,0.034,2.127,-1.089,-1.038,-1.431,-1.048,-1.734,-1.437,-0.571,-0.486,-0.164,-0.012,0.058
'0:00.926',-2.145,-2.111,0.035,2.128,-1.090,-1.038,-1.433,-1.049,-1.736,-1.438,-0.572,-0.489,-0.166,-0.010,0.056
'0:00.927',-2.152,-2.118,0.035,2.135,-1.093,-1.042,-1.437,-1.052,-1.738,-1.440,-0.573,-0.490,-0.165,-0.009,0.055
'0:00.928',-2.153,-2.119,0.034,2.136,-1.093,-1.042,-1.438,-1.054,-1.741,-1.442,-0.574,-0.493,-0.165,-0.009,0.053
'0:00.929',-2.143,-2.112,0.030,2.127,-1.087,-1.041,-1.436,-1.053,-1.737,-1.441,-0.573,-0.492,-0.165,-0.011,0.056
'0:00.930',-2.140,-2.111,0.030,2.126,-1.085,-1.040,-1.436,-1.052,-1.738,-1.438,-0.573,-0.490,-0.164,-0.009,0.056
'0:00.931',-2.138,-2.108,0.030,2.123,-1.085,-1.038,-1.435,-1.048,-1.737,-1.437,-0.571,-0.487,-0.163,-0.011,0.054
'0:00.932',-2.133,-2.102,0.031,2.118,-1.083,-1.036,-1.438,-1.050,-1.738,-1.438,-0.570,-0.486,-0.162,-0.011,0.056
'0:00.933',-2.132,-2.104,0.028,2.119,-1.081,-1.038,-1.440,-1.051,-1.738,-1.438,-0.570,-0.489,-0.163,-0.010,0.057
'0:00.934',-2.127,-2.107,0.021,2.117,-1.075,-1.042,-1.437,-1.048,-1.735,-1.438,-0.570,-0.487,-0.162,-0.013,0.057
'0:00.935',-2.123,-2.104,0.019,2.114,-1.071,-1.042,-1.435,-1.046,-1.732,-1.434,-0.569,-0.485,-0.162,-0.013,0.056
'0:00.936',-2.120,-2.101,0.019,2.111,-1.070,-1.041,-1.437,-1.046,-1.730,-1.431,-0.565,-0.484,-0.161,-0.014,0.057
'0:00.937',-2.119,-2.100,0.019,2.110,-1.069,-1.040,-1.438,-1.047,-1.731,-1.433,-0.568,-0.484,-0.161,-0.014,0.060
'0:00.938',-2.119,-2.098,0.021,2.108,-1.069,-1.038,-1.431,-1.043,-1.730,-1.431,-0.567,-0.485,-0.161,-0.012,0.059
'0:00.939',-2.119,-2.095,0.024,2.107,-1.071,-1.036,-1.428,-1.041,-1.728,-1.430,-0.565,-0.485,-0.161,-0.011,0.058
'0:00.940',-2.124,-2.098,0.026,2.111,-1.075,-1.036,-1.433,-1.043,-1.730,-1.431,-0.567,-0.488,-0.162,-0.010,0.057
'0:00.941',-2.127,-2.100,0.027,2.114,-1.077,-1.036,-1.433,-1.042,-1.729,-1.433,-0.569,-0.490,-0.163,-0.009,0.057
'0:00.942',-2.132,-2.104,0.029,2.119,-1.081,-1.038,-1.435,-1.044,-1.728,-1.433,-0.569,-0.490,-0.163,-0.006,0.054
'0:00.943',-2.132,-2.102,0.031,2.117,-1.082,-1.035,-1.435,-1.044,-1.728,-1.431,-0.567,-0.488,-0.160,-0.005,0.051
'0:00.944',-2.128,-2.094,0.034,2.111,-1.081,-1.030,-1.433,-1.042,-1.728,-1.431,-0.565,-0.488,-0.163,-0.003,0.050
'0:00.945',-2.129,-2.091,0.037,2.111,-1.083,-1.027,-1.433,-1.046,-1.726,-1.429,-0.566,-0.489,-0.162,0.000,0.050
'0:00.946',-2.126,-2.087,0.038,2.107,-1.083,-1.024,-1.431,-1.043,-1.724,-1.427,-0.564,-0.487,-0.161,0.002,0.047
'0:00.947',-2.126,-2.086,0.041,2.106,-1.083,-1.022,-1.433,-1.042,-1.724,-1.427,-0.560,-0.486,-0.160,0.004,0.048
'0:00.948',-2.128,-2.085,0.043,2.107,-1.086,-1.021,-1.435,-1.043,-1.726,-1.429,-0.562,-0.486,-0.159,0.006,0.049
'0:00.949',-2.126,-2.087,0.038,2.107,-1.083,-1.024,-1.435,-1.044,-1.726,-1.431,-0.564,-0.486,-0.157,0.003,0.049
'0:00.950',-2.123,-2.088,0.035,2.106,-1.079,-1.026,-1.437,-1.045,-1.727,-1.429,-0.562,-0.487,-0.153,0.001,0.049
'0:00.951',-2.119,-2.084,0.034,2.102,-1.077,-1.025,-1.437,-1.042,-1.726,-1.429,-0.564,-0.488,-0.153,0.001,0.048
'0:00.952',-2.119,-2.085,0.034,2.102,-1.077,-1.025,-1.435,-1.042,-1.724,-1.427,-0.562,-0.485,-0.147,-0.003,0.049
'0:00.953',-2.123,-2.088,0.035,2.105,-1.079,-1.026,-1.436,-1.044,-1.724,-1.427,-0.562,-0.486,-0.147,-0.004,0.048
'0:00.954',-2.119,-2.087,0.032,2.103,-1.075,-1.028,-1.433,-1.040,-1.722,-1.426,-0.561,-0.484,-0.146,-0.004,0.047
'0:00.955',-2.111,-2.086,0.026,2.099,-1.069,-1.030,-1.429,-1.036,-1.718,-1.421,-0.559,-0.482,-0.142,-0.006,0.046
'0:00.956',-2.110,-2.086,0.025,2.098,-1.067,-1.030,-1.429,-1.032,-1.714,-1.419,-0.556,-0.479,-0.142,-0.010,0.048
'0:00.957',-2.108,-2.085,0.023,2.096,-1.066,-1.031,-1.426,-1.030,-1.712,-1.416,-0.553,-0.477,-0.137,-0.013,0.049
'0:00.958',-2.108,-2.084,0.025,2.096,-1.067,-1.030,-1.425,-1.029,-1.711,-1.413,-0.553,-0.477,-0.135,-0.012,0.046
'0:00.959',-2.107,-2.080,0.027,2.093,-1.067,-1.026,-1.427,-1.024,-1.708,-1.410,-0.550,-0.474,-0.132,-0.010,0.047
'0:00.960',-2.100,-2.075,0.025,2.087,-1.063,-1.024,-1.426,-1.023,-1.707,-1.407,-0.547,-0.473,-0.129,-0.011,0.046
'0:00.961',-2.100,-2.074,0.026,2.087,-1.063,-1.024,-1.428,-1.022,-1.706,-1.405,-0.547,-0.473,-0.130,-0.011,0.047
'0:00.962',-2.099,-2.072,0.026,2.086,-1.063,-1.022,-1.431,-1.020,-1.702,-1.405,-0.543,-0.471,-0.125,-0.007,0.048
'0:00.963',-2.096,-2.068,0.028,2.082,-1.062,-1.020,-1.435,-1.021,-1.700,-1.401,-0.542,-0.469,-0.122,-0.005,0.047
'0:00.964',-2.092,-2.063,0.029,2.078,-1.060,-1.018,-1.435,-1.018,-1.698,-1.399,-0.542,-0.466,-0.118,-0.001,0.049
'0:00.965',-2.092,-2.058,0.035,2.075,-1.063,-1.012,-1.435,-1.018,-1.697,-1.399,-0.539,-0.464,-0.114,0.003,0.050
'0:00.966',-2.088,-2.049,0.041,2.068,-1.065,-1.004,-1.440,-1.020,-1.696,-1.396,-0.537,-0.462,-0.114,0.011,0.049
'0:00.967',-2.087,-2.046,0.041,2.067,-1.065,-1.002,-1.442,-1.020,-1.696,-1.395,-0.535,-0.460,-0.112,0.016,0.050
'0:00.968',-2.087,-2.042,0.045,2.065,-1.067,-0.999,-1.444,-1.023,-1.698,-1.397,-0.534,-0.458,-0.109,0.017,0.051
'0:00.969',-2.082,-2.038,0.043,2.061,-1.063,-0.998,-1.448,-1.022,-1.696,-1.393,-0.531,-0.454,-0.104,0.020,0.051
'0:00.970',-2.082,-2.042,0.041,2.062,-1.062,-1.000,-1.451,-1.018,-1.692,-1.389,-0.528,-0.451,-0.101,0.021,0.050
'0:00.971',-2.079,-2.037,0.042,2.058,-1.060,-0.998,-1.455,-1.018,-1.690,-1.387,-0.527,-0.450,-0.098,0.022,0.049
'0:00.972',-2.071,-2.030,0.041,2.050,-1.056,-0.995,-1.452,-1.014,-1.683,-1.381,-0.520,-0.445,-0.093,0.024,0.048
'0:00.973',-2.073,-2.033,0.040,2.053,-1.057,-0.996,-1.446,-1.010,-1.677,-1.377,-0.516,-0.444,-0.092,0.021,0.045
'0:00.974',-2.071,-2.034,0.037,2.052,-1.054,-0.998,-1.444,-1.004,-1.673,-1.373,-0.516,-0.444,-0.093,0.021,0.044
'0:00.975',-2.067,-2.035,0.033,2.051,-1.050,-1.001,-1.444,-1.002,-1.672,-1.370,-0.510,-0.438,-0.088,0.018,0.043
'0:00.976',-2.068,-2.041,0.027,2.054,-1.048,-1.006,-1.440,-0.998,-1.667,-1.367,-0.511,-0.439,-0.086,0.013,0.043
'0:00.977',-2.067,-2.041,0.027,2.054,-1.048,-1.006,-1.438,-0.994,-1.665,-1.364,-0.509,-0.440,-0.086,0.012,0.042
'0:00.978',-2.068,-2.042,0.026,2.055,-1.048,-1.008,-1.439,-0.997,-1.667,-1.364,-0.509,-0.438,-0.084,0.011,0.041
'0:00.979',-2.067,-2.045,0.021,2.055,-1.044,-1.012,-1.437,-0.993,-1.663,-1.363,-0.510,-0.438,-0.080,0.007,0.043
'0:00.980',-2.066,-2.047,0.019,2.057,-1.043,-1.014,-1.438,-0.991,-1.661,-1.361,-0.505,-0.434,-0.072,0.006,0.046
'0:00.981',-2.062,-2.044,0.018,2.053,-1.040,-1.012,-1.444,-0.993,-1.663,-1.359,-0.504,-0.431,-0.068,0.007,0.050
'0:00.982',-2.058,-2.042,0.017,2.050,-1.038,-1.012,-1.448,-0.991,-1.660,-1.356,-0.499,-0.428,-0.066,0.006,0.052
'0:00.983',-2.049,-2.036,0.013,2.042,-1.032,-1.011,-1.450,-0.989,-1.656,-1.352,-0.494,-0.422,-0.059,0.007,0.054
'0:00.984',-2.041,-2.031,0.010,2.036,-1.026,-1.010,-1.454,-0.989,-1.657,-1.351,-0.493,-0.418,-0.054,0.008,0.059
'0:00.985',-2.040,-2.026,0.013,2.034,-1.027,-1.006,-1.456,-0.990,-1.656,-1.353,-0.494,-0.419,-0.053,0.011,0.061
'0:00.986',-2.035,-2.021,0.015,2.027,-1.025,-1.002,-1.456,-0.989,-1.656,-1.349,-0.491,-0.415,-0.051,0.013,0.060
'0:00.987',-2.031,-2.018,0.013,2.025,-1.022,-1.002,-1.459,-0.988,-1.654,-1.347,-0.488,-0.411,-0.047,0.013,0.062
'0:00.988',-2.028,-2.016,0.012,2.022,-1.020,-1.002,-1.462,-0.991,-1.655,-1.351,-0.488,-0.413,-0.045,0.013,0.069
'0:00.989',-2.026,-2.014,0.013,2.021,-1.020,-1.000,-1.465,-0.994,-1.659,-1.351,-0.487,-0.411,-0.044,0.018,0.070
'0:00.990',-2.018,-2.009,0.010,2.014,-1.014,-0.999,-1.466,-0.994,-1.661,-1.351,-0.487,-0.409,-0.042,0.019,0.073
'0:00.991',-2.015,-2.009,0.007,2.012,-1.012,-1.000,-1.469,-0.998,-1.666,-1.357,-0.491,-0.410,-0.043,0.018,0.077
'0:00.992',-2.018,-2.007,0.011,2.013,-1.014,-0.998,-1.470,-1.000,-1.669,-1.359,-0.493,-0.412,-0.045,0.021,0.079
'0:00.993',-2.022,-2.009,0.013,2.016,-1.018,-0.998,-1.472,-1.004,-1.673,-1.363,-0.496,-0.413,-0.044,0.022,0.080
'0:00.994',-2.030,-2.018,0.012,2.024,-1.022,-1.003,-1.477,-1.008,-1.681,-1.369,-0.501,-0.417,-0.048,0.018,0.081
'0:00.995',-2.031,-2.022,0.009,2.026,-1.020,-1.006,-1.478,-1.012,-1.685,-1.373,-0.504,-0.422,-0.050,0.016,0.081
'0:00.996',-2.036,-2.030,0.005,2.034,-1.021,-1.012,-1.478,-1.016,-1.689,-1.379,-0.509,-0.426,-0.054,0.009,0.082
'0:00.997',-2.034,-2.027,0.006,2.030,-1.020,-1.010,-1.478,-1.019,-1.694,-1.383,-0.513,-0.428,-0.056,0.006,0.086
'0:00.998',-2.034,-2.021,0.013,2.027,-1.024,-1.004,-1.479,-1.023,-1.698,-1.383,-0.514,-0.427,-0.058,0.013,0.087
'0:00.999',-2.038,-2.018,0.019,2.028,-1.028,-1.000,-1.478,-1.023,-1.699,-1.385,-0.516,-0.428,-0.059,0.018,0.087
'0:01.000',-2.034,-2.015,0.018,2.025,-1.026,-0.998,-1.476,-1.024,-1.699,-1.387,-0.517,-0.430,-0.060,0.020,0.089
'0:01.001',-2.041,-2.022,0.019,2.031,-1.030,-1.001,-1.476,-1.028,-1.704,-1.393,-0.524,-0.435,-0.069,0.018,0.092
'0:01.002',-2.048,-2.027,0.021,2.038,-1.034,-1.003,-1.472,-1.032,-1.710,-1.399,-0.531,-0.440,-0.077,0.021,0.093
'0:01.003',-2.047,-2.027,0.021,2.038,-1.034,-1.004,-1.472,-1.033,-1.710,-1.400,-0.532,-0.441,-0.080,0.021,0.092
'0:01.004',-2.051,-2.030,0.021,2.041,-1.036,-1.004,-1.474,-1.032,-1.712,-1.402,-0.534,-0.441,-0.081,0.021,0.089
'0:01.005',-2.054,-2.033,0.022,2.043,-1.038,-1.005,-1.480,-1.044,-1.723,-1.412,-0.543,-0.448,-0.087,0.021,0.095
'0:01.006',-2.051,-2.027,0.024,2.039,-1.038,-1.002,-1.482,-1.058,-1.732,-1.420,-0.549,-0.454,-0.091,0.022,0.101
'0:01.007',-2.046,-2.022,0.025,2.034,-1.036,-0.998,-1.484,-1.059,-1.733,-1.421,-0.548,-0.451,-0.091,0.028,0.102
'0:01.008',-2.049,-2.019,0.029,2.034,-1.039,-0.995,-1.488,-1.063,-1.740,-1.425,-0.551,-0.454,-0.095,0.032,0.107
'0:01.009',-2.050,-2.018,0.032,2.034,-1.042,-0.993,-1.492,-1.071,-1.746,-1.429,-0.554,-0.455,-0.097,0.033,0.108
'0:01.010',-2.047,-2.015,0.033,2.030,-1.040,-0.991,-1.493,-1.073,-1.747,-1.429,-0.550,-0.454,-0.097,0.033,0.108
'0:01.011',-2.042,-2.014,0.028,2.028,-1.035,-0.993,-1.494,-1.074,-1.748,-1.429,-0.549,-0.454,-0.095,0.029,0.111
'0:01.012',-2.038,-2.018,0.021,2.028,-1.030,-0.999,-1.496,-1.075,-1.748,-1.429,-0.552,-0.454,-0.094,0.025,0.112
'0:01.013',-2.043,-2.026,0.018,2.034,-1.030,-1.004,-1.496,-1.077,-1.752,-1.433,-0.556,-0.459,-0.098,0.021,0.113
'0:01.014',-2.045,-2.033,0.012,2.039,-1.029,-1.010,-1.496,-1.077,-1.755,-1.438,-0.559,-0.463,-0.102,0.015,0.111
'0:01.015',-2.045,-2.038,0.007,2.041,-1.026,-1.014,-1.492,-1.075,-1.754,-1.440,-0.558,-0.463,-0.104,0.012,0.108
'0:01.016',-2.044,-2.041,0.004,2.043,-1.024,-1.018,-1.486,-1.070,-1.750,-1.437,-0.557,-0.463,-0.106,0.004,0.106
'0:01.017',-2.041,-2.043,-0.002,2.042,-1.020,-1.022,-1.483,-1.069,-1.749,-1.437,-0.559,-0.463,-0.107,0.003,0.106
'0:01.018',-2.041,-2.045,-0.004,2.042,-1.018,-1.024,-1.479,-1.067,-1.748,-1.438,-0.561,-0.465,-0.111,0.002,0.105
'0:01.019',-2.040,-2.044,-0.004,2.042,-1.018,-1.024,-1.474,-1.062,-1.742,-1.433,-0.557,-0.462,-0.110,0.001,0.102
'0:01.020',-2.042,-2.043,-0.001,2.043,-1.021,-1.022,-1.472,-1.058,-1.739,-1.428,-0.555,-0.459,-0.107,0.004,0.101
'0:01.021',-2.045,-2.046,-0.002,2.046,-1.022,-1.024,-1.476,-1.058,-1.740,-1.431,-0.557,-0.461,-0.105,0.004,0.101
'0:01.022',-2.049,-2.055,-0.006,2.052,-1.022,-1.030,-1.477,-1.063,-1.746,-1.435,-0.559,-0.464,-0.105,0.001,0.102
'0:01.023',-2.049,-2.061,-0.013,2.055,-1.018,-1.036,-1.474,-1.065,-1.749,-1.437,-0.564,-0.468,-0.108,-0.005,0.103
'0:01.024',-2.047,-2.066,-0.018,2.057,-1.014,-1.042,-1.474,-1.065,-1.750,-1.440,-0.567,-0.469,-0.107,-0.009,0.104
'0:01.025',-2.050,-2.072,-0.022,2.062,-1.014,-1.047,-1.476,-1.070,-1.756,-1.446,-0.573,-0.474,-0.111,-0.013,0.110
'0:01.026',-2.054,-2.079,-0.025,2.066,-1.015,-1.051,-1.478,-1.075,-1.760,-1.452,-0.579,-0.480,-0.116,-0.015,0.110
'0:01.027',-2.058,-2.083,-0.025,2.071,-1.017,-1.054,-1.478,-1.078,-1.764,-1.456,-0.581,-0.481,-0.118,-0.016,0.108
'0:01.028',-2.054,-2.079,-0.026,2.066,-1.014,-1.052,-1.480,-1.081,-1.768,-1.459,-0.581,-0.481,-0.117,-0.013,0.113
'0:01.029',-2.053,-2.076,-0.024,2.064,-1.014,-1.050,-1.484,-1.083,-1.768,-1.459,-0.580,-0.478,-0.115,-0.009,0.114
'0:01.030',-2.049,-2.075,-0.026,2.062,-1.012,-1.051,-1.482,-1.082,-1.770,-1.460,-0.580,-0.478,-0.116,-0.011,0.112
'0:01.031',-2.043,-2.074,-0.030,2.058,-1.006,-1.052,-1.482,-1.085,-1.772,-1.460,-0.581,-0.479,-0.117,-0.013,0.111
'0:01.032',-2.043,-2.071,-0.029,2.058,-1.008,-1.050,-1.480,-1.082,-1.770,-1.458,-0.583,-0.479,-0.116,-0.013,0.110
'0:01.033',-2.047,-2.071,-0.025,2.059,-1.012,-1.048,-1.480,-1.085,-1.770,-1.458,-0.582,-0.479,-0.116,-0.011,0.106
'0:01.034',-2.051,-2.075,-0.024,2.063,-1.014,-1.049,-1.480,-1.086,-1.772,-1.458,-0.582,-0.479,-0.118,-0.011,0.104
'0:01.035',-2.049,-2.073,-0.024,2.061,-1.013,-1.048,-1.481,-1.081,-1.768,-1.455,-0.578,-0.475,-0.117,-0.006,0.102
'0:01.036',-2.054,-2.071,-0.017,2.062,-1.018,-1.044,-1.483,-1.086,-1.768,-1.452,-0.576,-0.473,-0.117,0.003,0.103
'0:01.037',-2.061,-2.068,-0.007,2.064,-1.027,-1.038,-1.482,-1.087,-1.768,-1.448,-0.573,-0.471,-0.118,0.008,0.101
'0:01.038',-2.065,-2.063,0.002,2.064,-1.034,-1.030,-1.479,-1.081,-1.759,-1.442,-0.568,-0.469,-0.120,0.011,0.093
'0:01.039',-2.078,-2.066,0.012,2.071,-1.045,-1.026,-1.467,-1.077,-1.756,-1.440,-0.569,-0.472,-0.129,0.015,0.085
'0:01.040',-2.089,-2.071,0.018,2.080,-1.054,-1.026,-1.456,-1.075,-1.756,-1.442,-0.574,-0.478,-0.138,0.011,0.080
'0:01.041',-2.095,-2.075,0.020,2.086,-1.058,-1.028,-1.450,-1.074,-1.756,-1.442,-0.576,-0.481,-0.144,0.004,0.078
'0:01.042',-2.099,-2.083,0.015,2.091,-1.057,-1.034,-1.448,-1.070,-1.754,-1.444,-0.575,-0.483,-0.149,-0.001,0.074
'0:01.043',-2.095,-2.088,0.007,2.091,-1.052,-1.040,-1.442,-1.067,-1.752,-1.444,-0.576,-0.484,-0.151,-0.007,0.071
'0:01.044',-2.098,-2.092,0.005,2.095,-1.052,-1.043,-1.442,-1.069,-1.755,-1.446,-0.577,-0.486,-0.153,-0.012,0.071
'0:01.045',-2.102,-2.094,0.008,2.098,-1.055,-1.042,-1.441,-1.069,-1.758,-1.448,-0.578,-0.489,-0.155,-0.015,0.071
'0:01.046',-2.102,-2.094,0.008,2.098,-1.055,-1.042,-1.440,-1.069,-1.756,-1.446,-0.578,-0.489,-0.157,-0.016,0.069
'0:01.047',-2.102,-2.095,0.006,2.099,-1.054,-1.044,-1.440,-1.067,-1.756,-1.452,-0.580,-0.492,-0.161,-0.015,0.070
'0:01.048',-2.102,-2.095,0.006,2.099,-1.054,-1.044,-1.438,-1.069,-1.760,-1.456,-0.585,-0.497,-0.165,-0.015,0.072
'0:01.049',-2.106,-2.104,0.003,2.106,-1.054,-1.050,-1.438,-1.075,-1.765,-1.462,-0.590,-0.501,-0.168,-0.018,0.074
'0:01.050',-2.109,-2.107,0.002,2.108,-1.056,-1.053,-1.435,-1.077,-1.768,-1.468,-0.596,-0.507,-0.175,-0.021,0.076
'0:01.051',-2.111,-2.107,0.004,2.109,-1.058,-1.052,-1.446,-1.077,-1.770,-1.470,-0.598,-0.512,-0.178,-0.020,0.076
'0:01.052',-2.114,-2.114,0.001,2.114,-1.058,-1.056,-1.446,-1.079,-1.770,-1.470,-0.598,-0.512,-0.177,-0.023,0.074
'0:01.053',-2.119,-2.119,0.001,2.119,-1.060,-1.059,-1.442,-1.079,-1.774,-1.474,-0.603,-0.517,-0.181,-0.025,0.072
'0:01.054',-2.120,-2.120,0.000,2.120,-1.060,-1.060,-1.444,-1.078,-1.774,-1.475,-0.606,-0.521,-0.185,-0.025,0.070
'0:01.055',-2.118,-2.119,-0.002,2.119,-1.058,-1.060,-1.437,-1.077,-1.772,-1.472,-0.603,-0.523,-0.187,-0.027,0.067
'0:01.056',-2.118,-2.119,-0.001,2.119,-1.059,-1.060,-1.438,-1.076,-1.772,-1.472,-0.603,-0.524,-0.188,-0.026,0.067
'0:01.057',-2.116,-2.118,-0.002,2.118,-1.058,-1.060,-1.438,-1.077,-1.774,-1.472,-0.603,-0.526,-0.186,-0.025,0.069
'0:01.058',-2.120,-2.123,-0.002,2.122,-1.060,-1.062,-1.438,-1.077,-1.774,-1.472,-0.604,-0.527,-0.186,-0.028,0.069
'0:01.059',-2.120,-2.122,-0.002,2.121,-1.060,-1.062,-1.435,-1.073,-1.771,-1.470,-0.606,-0.529,-0.191,-0.029,0.068
'0:01.060',-2.115,-2.116,-0.002,2.115,-1.057,-1.058,-1.433,-1.071,-1.768,-1.467,-0.602,-0.526,-0.190,-0.029,0.068
'0:01.061',-2.117,-2.119,-0.003,2.119,-1.058,-1.060,-1.432,-1.070,-1.767,-1.466,-0.601,-0.526,-0.191,-0.032,0.068
'0:01.062',-2.118,-2.123,-0.005,2.120,-1.056,-1.064,-1.435,-1.071,-1.766,-1.466,-0.601,-0.525,-0.191,-0.033,0.068
'0:01.063',-2.114,-2.121,-0.007,2.118,-1.053,-1.064,-1.433,-1.067,-1.763,-1.466,-0.598,-0.520,-0.189,-0.032,0.067
