'Elapsed time','i','ii','iii','avr','avl','avf','v1','v2','v3','v4','v5','v6','vx','vy','vz'
'hh:mm:ss.mmm','mV','mV','mV','mV','mV','mV','mV','mV','mV','mV','mV','mV','mV','mV','mV'
'0:00.000',-0.322,-3.205,-2.883,1.764,1.28,-3.045,0.274,0.334,0.541,-0.366,0.543,0.132,-0.306,-1.175,0.244
'0:00.001',-0.326,-3.2,-2.875,1.763,1.274,-3.038,0.273,0.328,0.538,-0.367,0.54,0.129,-0.309,-1.165,0.242
'0:00.002',-0.324,-3.192,-2.869,1.758,1.272,-3.031,0.274,0.331,0.543,-0.361,0.543,0.133,-0.309,-1.161,0.241
'0:00.003',-0.324,-3.19,-2.866,1.757,1.271,-3.028,0.276,0.331,0.542,-0.361,0.543,0.133,-0.309,-1.161,0.242
'0:00.004',-0.322,-3.186,-2.864,1.754,1.271,-3.025,0.275,0.329,0.544,-0.359,0.544,0.133,-0.307,-1.153,0.242
'0:00.005',-0.319,-3.182,-2.862,1.75,1.272,-3.022,0.279,0.334,0.547,-0.354,0.545,0.133,-0.307,-1.154,0.24
'0:00.006',-0.316,-3.175,-2.86,1.746,1.272,-3.018,0.281,0.336,0.55,-0.352,0.545,0.132,-0.306,-1.15,0.237
'0:00.007',-0.313,-3.171,-2.858,1.742,1.272,-3.015,0.282,0.337,0.551,-0.354,0.544,0.132,-0.308,-1.147,0.236
'0:00.008',-0.315,-3.17,-2.855,1.742,1.27,-3.013,0.282,0.336,0.551,-0.353,0.546,0.134,-0.307,-1.148,0.236
'0:00.009',-0.316,-3.168,-2.852,1.742,1.268,-3.01,0.283,0.338,0.552,-0.349,0.548,0.134,-0.306,-1.146,0.235
'0:00.010',-0.315,-3.163,-2.849,1.739,1.267,-3.007,0.287,0.338,0.554,-0.346,0.549,0.135,-0.305,-1.145,0.236
'0:00.011',-0.315,-3.16,-2.846,1.738,1.266,-3.003,0.286,0.337,0.556,-0.344,0.55,0.137,-0.302,-1.143,0.237
'0:00.012',-0.311,-3.162,-2.85,1.736,1.27,-3.006,0.281,0.336,0.554,-0.346,0.549,0.135,-0.299,-1.143,0.239
'0:00.013',-0.309,-3.16,-2.85,1.735,1.27,-3.006,0.277,0.335,0.554,-0.346,0.548,0.136,-0.299,-1.141,0.242
'0:00.014',-0.311,-3.159,-2.848,1.735,1.268,-3.003,0.276,0.335,0.555,-0.343,0.549,0.138,-0.3,-1.14,0.242
'0:00.015',-0.31,-3.158,-2.848,1.734,1.268,-3.003,0.274,0.334,0.554,-0.343,0.547,0.138,-0.297,-1.139,0.244
'0:00.016',-0.311,-3.155,-2.845,1.733,1.266,-3.001,0.274,0.332,0.554,-0.343,0.548,0.139,-0.295,-1.141,0.245
'0:00.017',-0.311,-3.154,-2.841,1.732,1.265,-2.998,0.274,0.333,0.556,-0.339,0.55,0.139,-0.295,-1.139,0.245
'0:00.018',-0.307,-3.149,-2.841,1.728,1.267,-2.995,0.27,0.331,0.555,-0.338,0.551,0.139,-0.295,-1.133,0.247
'0:00.019',-0.304,-3.148,-2.845,1.726,1.27,-2.997,0.268,0.332,0.555,-0.338,0.551,0.14,-0.293,-1.135,0.249
'0:00.020',-0.306,-3.149,-2.843,1.728,1.268,-2.996,0.269,0.337,0.558,-0.334,0.552,0.14,-0.294,-1.136,0.243
'0:00.021',-0.306,-3.151,-2.844,1.728,1.268,-2.998,0.277,0.342,0.558,-0.336,0.552,0.14,-0.297,-1.139,0.239
'0:00.022',-0.304,-3.155,-2.851,1.73,1.273,-3.003,0.278,0.343,0.559,-0.336,0.55,0.138,-0.293,-1.147,0.241
'0:00.023',-0.303,-3.159,-2.856,1.731,1.276,-3.007,0.274,0.341,0.559,-0.334,0.551,0.139,-0.29,-1.152,0.243
'0:00.024',-0.303,-3.159,-2.856,1.731,1.276,-3.007,0.275,0.342,0.56,-0.333,0.552,0.139,-0.29,-1.15,0.244
'0:00.025',-0.297,-3.149,-2.852,1.723,1.277,-3.001,0.281,0.351,0.568,-0.326,0.558,0.143,-0.288,-1.138,0.238
'0:00.026',-0.295,-3.147,-2.852,1.721,1.278,-2.999,0.283,0.356,0.571,-0.321,0.562,0.147,-0.285,-1.136,0.235
'0:00.027',-0.297,-3.145,-2.849,1.721,1.276,-2.997,0.281,0.355,0.571,-0.319,0.564,0.149,-0.282,-1.133,0.237
'0:00.028',-0.293,-3.14,-2.846,1.717,1.276,-2.994,0.279,0.358,0.576,-0.313,0.569,0.151,-0.281,-1.127,0.236
'0:00.029',-0.289,-3.138,-2.849,1.714,1.28,-2.994,0.273,0.356,0.578,-0.309,0.574,0.154,-0.275,-1.127,0.239
'0:00.030',-0.285,-3.137,-2.852,1.711,1.283,-2.994,0.262,0.353,0.576,-0.31,0.576,0.158,-0.27,-1.129,0.248
'0:00.031',-0.284,-3.139,-2.855,1.712,1.285,-2.998,0.252,0.349,0.573,-0.309,0.577,0.159,-0.271,-1.131,0.253
'0:00.032',-0.281,-3.135,-2.854,1.708,1.286,-2.995,0.244,0.349,0.574,-0.305,0.579,0.164,-0.264,-1.127,0.258
'0:00.033',-0.275,-3.136,-2.861,1.706,1.293,-2.999,0.235,0.349,0.575,-0.302,0.581,0.166,-0.256,-1.131,0.267
'0:00.034',-0.272,-3.137,-2.865,1.704,1.296,-3.001,0.229,0.348,0.577,-0.299,0.584,0.168,-0.251,-1.133,0.272
'0:00.035',-0.264,-3.132,-2.868,1.698,1.302,-3,0.221,0.348,0.577,-0.299,0.583,0.17,-0.245,-1.131,0.276
'0:00.036',-0.262,-3.131,-2.869,1.696,1.303,-3,0.216,0.349,0.58,-0.298,0.586,0.171,-0.241,-1.129,0.277
'0:00.037',-0.264,-3.131,-2.868,1.697,1.302,-2.999,0.215,0.356,0.587,-0.291,0.593,0.175,-0.235,-1.124,0.276
'0:00.038',-0.256,-3.128,-2.873,1.692,1.308,-3.001,0.211,0.358,0.592,-0.288,0.596,0.179,-0.232,-1.119,0.278
'0:00.039',-0.253,-3.127,-2.875,1.69,1.311,-3.002,0.208,0.358,0.591,-0.286,0.598,0.181,-0.228,-1.119,0.279
'0:00.040',-0.258,-3.128,-2.87,1.694,1.306,-3,0.211,0.357,0.589,-0.287,0.598,0.181,-0.228,-1.121,0.278
'0:00.041',-0.259,-3.13,-2.87,1.694,1.305,-3,0.214,0.357,0.59,-0.286,0.599,0.181,-0.229,-1.121,0.275
'0:00.042',-0.256,-3.128,-2.873,1.692,1.308,-3.001,0.222,0.365,0.595,-0.28,0.602,0.184,-0.225,-1.125,0.268
'0:00.043',-0.251,-3.123,-2.872,1.687,1.31,-2.998,0.231,0.375,0.602,-0.272,0.607,0.187,-0.218,-1.124,0.261
'0:00.044',-0.242,-3.113,-2.87,1.677,1.314,-2.992,0.236,0.383,0.611,-0.263,0.614,0.192,-0.212,-1.12,0.255
'0:00.045',-0.24,-3.108,-2.868,1.674,1.313,-2.988,0.24,0.385,0.614,-0.262,0.615,0.192,-0.212,-1.119,0.252
'0:00.046',-0.244,-3.11,-2.865,1.677,1.31,-2.988,0.238,0.382,0.611,-0.266,0.61,0.189,-0.215,-1.121,0.255
'0:00.047',-0.247,-3.115,-2.869,1.681,1.31,-2.992,0.236,0.375,0.604,-0.27,0.606,0.186,-0.22,-1.119,0.259
'0:00.048',-0.248,-3.122,-2.874,1.685,1.312,-2.998,0.237,0.37,0.599,-0.274,0.602,0.182,-0.225,-1.119,0.26
'0:00.049',-0.247,-3.124,-2.877,1.686,1.315,-3.002,0.237,0.369,0.597,-0.279,0.598,0.18,-0.227,-1.125,0.26
'0:00.050',-0.249,-3.129,-2.88,1.689,1.315,-3.005,0.236,0.367,0.594,-0.28,0.597,0.181,-0.223,-1.132,0.262
'0:00.051',-0.253,-3.128,-2.875,1.69,1.31,-3.002,0.236,0.369,0.599,-0.276,0.599,0.182,-0.22,-1.133,0.262
'0:00.052',-0.252,-3.124,-2.873,1.688,1.31,-2.998,0.234,0.364,0.594,-0.28,0.597,0.181,-0.224,-1.131,0.26
'0:00.053',-0.249,-3.124,-2.875,1.687,1.313,-3,0.233,0.357,0.588,-0.283,0.595,0.182,-0.224,-1.131,0.263
'0:00.054',-0.251,-3.126,-2.875,1.688,1.312,-3.001,0.227,0.35,0.583,-0.291,0.592,0.18,-0.226,-1.129,0.272
'0:00.055',-0.251,-3.131,-2.88,1.691,1.314,-3.005,0.217,0.335,0.567,-0.303,0.583,0.175,-0.234,-1.135,0.281
'0:00.056',-0.254,-3.135,-2.882,1.694,1.314,-3.009,0.21,0.322,0.553,-0.316,0.574,0.17,-0.239,-1.139,0.289
'0:00.057',-0.259,-3.14,-2.881,1.7,1.31,-3.01,0.207,0.313,0.545,-0.323,0.57,0.167,-0.242,-1.137,0.295
'0:00.058',-0.264,-3.143,-2.88,1.704,1.308,-3.011,0.21,0.31,0.543,-0.326,0.567,0.163,-0.247,-1.138,0.295
'0:00.059',-0.269,-3.143,-2.875,1.706,1.303,-3.01,0.22,0.317,0.548,-0.324,0.568,0.161,-0.252,-1.137,0.286
'0:00.060',-0.274,-3.139,-2.865,1.706,1.296,-3.002,0.232,0.326,0.556,-0.317,0.571,0.162,-0.257,-1.132,0.273
'0:00.061',-0.277,-3.14,-2.865,1.708,1.294,-3.002,0.234,0.327,0.556,-0.316,0.572,0.162,-0.258,-1.131,0.272
'0:00.062',-0.275,-3.153,-2.878,1.714,1.302,-3.016,0.229,0.322,0.551,-0.322,0.568,0.16,-0.253,-1.143,0.279
'0:00.063',-0.278,-3.172,-2.895,1.725,1.308,-3.034,0.224,0.311,0.539,-0.334,0.559,0.155,-0.257,-1.161,0.287
'0:00.064',-0.285,-3.187,-2.902,1.736,1.308,-3.045,0.217,0.295,0.522,-0.351,0.543,0.143,-0.27,-1.175,0.297
'0:00.065',-0.287,-3.187,-2.899,1.738,1.306,-3.043,0.218,0.291,0.516,-0.357,0.537,0.139,-0.277,-1.174,0.301
'0:00.066',-0.294,-3.187,-2.893,1.74,1.299,-3.041,0.222,0.291,0.516,-0.355,0.537,0.139,-0.278,-1.168,0.301
'0:00.067',-0.302,-3.191,-2.889,1.746,1.293,-3.04,0.223,0.288,0.513,-0.358,0.534,0.134,-0.283,-1.169,0.3
'0:00.068',-0.307,-3.189,-2.883,1.748,1.288,-3.037,0.226,0.29,0.514,-0.357,0.534,0.132,-0.287,-1.167,0.298
'0:00.069',-0.31,-3.187,-2.877,1.748,1.284,-3.033,0.231,0.292,0.516,-0.355,0.534,0.133,-0.29,-1.159,0.295
'0:00.070',-0.31,-3.189,-2.878,1.75,1.284,-3.034,0.234,0.296,0.518,-0.354,0.535,0.133,-0.288,-1.159,0.292
'0:00.071',-0.312,-3.193,-2.881,1.753,1.284,-3.038,0.237,0.3,0.519,-0.353,0.534,0.13,-0.29,-1.169,0.287
'0:00.072',-0.315,-3.195,-2.881,1.754,1.283,-3.038,0.239,0.302,0.521,-0.352,0.533,0.128,-0.292,-1.171,0.284
'0:00.073',-0.316,-3.199,-2.882,1.757,1.283,-3.041,0.239,0.302,0.521,-0.353,0.531,0.127,-0.293,-1.173,0.285
'0:00.074',-0.318,-3.204,-2.887,1.761,1.284,-3.046,0.241,0.302,0.519,-0.356,0.526,0.122,-0.296,-1.182,0.284
'0:00.075',-0.321,-3.211,-2.89,1.766,1.285,-3.051,0.242,0.301,0.517,-0.358,0.523,0.119,-0.298,-1.188,0.282
'0:00.076',-0.323,-3.215,-2.893,1.768,1.285,-3.054,0.239,0.298,0.515,-0.36,0.521,0.117,-0.302,-1.191,0.282
'0:00.077',-0.322,-3.215,-2.893,1.768,1.286,-3.054,0.236,0.295,0.512,-0.364,0.517,0.114,-0.302,-1.192,0.286
'0:00.078',-0.321,-3.215,-2.893,1.768,1.286,-3.054,0.235,0.293,0.508,-0.369,0.512,0.111,-0.303,-1.192,0.289
'0:00.079',-0.323,-3.217,-2.895,1.77,1.286,-3.057,0.236,0.291,0.507,-0.37,0.51,0.108,-0.305,-1.192,0.288
'0:00.080',-0.325,-3.22,-2.896,1.772,1.286,-3.058,0.238,0.293,0.509,-0.367,0.512,0.109,-0.306,-1.195,0.284
'0:00.081',-0.328,-3.224,-2.896,1.776,1.284,-3.06,0.238,0.292,0.507,-0.367,0.51,0.107,-0.31,-1.202,0.281
'0:00.082',-0.332,-3.228,-2.897,1.78,1.282,-3.062,0.239,0.29,0.502,-0.373,0.505,0.103,-0.314,-1.204,0.281
'0:00.083',-0.332,-3.229,-2.897,1.78,1.282,-3.063,0.246,0.296,0.508,-0.369,0.509,0.106,-0.314,-1.204,0.276
'0:00.084',-0.331,-3.234,-2.903,1.782,1.286,-3.068,0.246,0.3,0.512,-0.363,0.512,0.106,-0.31,-1.208,0.275
'0:00.085',-0.331,-3.24,-2.909,1.786,1.289,-3.075,0.24,0.293,0.505,-0.371,0.505,0.101,-0.311,-1.214,0.277
'0:00.086',-0.332,-3.24,-2.909,1.786,1.288,-3.075,0.241,0.291,0.503,-0.372,0.506,0.102,-0.315,-1.214,0.276
'0:00.087',-0.332,-3.243,-2.911,1.788,1.289,-3.077,0.24,0.292,0.505,-0.37,0.506,0.103,-0.317,-1.214,0.278
'0:00.088',-0.334,-3.246,-2.912,1.79,1.288,-3.079,0.239,0.29,0.503,-0.372,0.504,0.102,-0.314,-1.216,0.279
'0:00.089',-0.337,-3.247,-2.91,1.792,1.286,-3.079,0.238,0.288,0.501,-0.372,0.504,0.102,-0.314,-1.216,0.28
'0:00.090',-0.334,-3.248,-2.915,1.791,1.29,-3.082,0.234,0.284,0.497,-0.376,0.499,0.1,-0.316,-1.217,0.282
'0:00.091',-0.333,-3.249,-2.917,1.792,1.292,-3.083,0.233,0.283,0.496,-0.378,0.499,0.101,-0.315,-1.22,0.283
'0:00.092',-0.335,-3.249,-2.914,1.792,1.29,-3.083,0.233,0.282,0.496,-0.377,0.498,0.101,-0.318,-1.218,0.283
'0:00.093',-0.338,-3.253,-2.916,1.795,1.289,-3.084,0.234,0.282,0.495,-0.378,0.496,0.099,-0.319,-1.221,0.283
'0:00.094',-0.339,-3.257,-2.918,1.798,1.29,-3.088,0.233,0.28,0.492,-0.38,0.494,0.098,-0.319,-1.225,0.284
'0:00.095',-0.337,-3.255,-2.918,1.796,1.29,-3.087,0.234,0.28,0.492,-0.379,0.493,0.099,-0.321,-1.224,0.283
'0:00.096',-0.338,-3.254,-2.916,1.796,1.288,-3.085,0.236,0.281,0.494,-0.379,0.493,0.096,-0.325,-1.222,0.281
'0:00.097',-0.34,-3.255,-2.914,1.797,1.287,-3.085,0.239,0.283,0.497,-0.376,0.494,0.095,-0.328,-1.222,0.279
'0:00.098',-0.342,-3.255,-2.913,1.798,1.286,-3.084,0.238,0.282,0.496,-0.376,0.493,0.095,-0.327,-1.222,0.28
'0:00.099',-0.342,-3.255,-2.913,1.798,1.285,-3.084,0.24,0.284,0.496,-0.376,0.494,0.095,-0.327,-1.222,0.279
'0:00.100',-0.344,-3.256,-2.912,1.8,1.284,-3.084,0.244,0.287,0.499,-0.373,0.497,0.097,-0.329,-1.219,0.278
'0:00.101',-0.345,-3.26,-2.914,1.802,1.284,-3.087,0.245,0.285,0.497,-0.377,0.493,0.093,-0.331,-1.222,0.277
'0:00.102',-0.342,-3.26,-2.917,1.801,1.288,-3.088,0.245,0.286,0.497,-0.376,0.493,0.092,-0.337,-1.224,0.273
'0:00.103',-0.345,-3.264,-2.918,1.805,1.286,-3.091,0.245,0.283,0.496,-0.376,0.493,0.091,-0.337,-1.226,0.276
'0:00.104',-0.349,-3.265,-2.916,1.808,1.283,-3.091,0.247,0.285,0.496,-0.377,0.492,0.09,-0.335,-1.226,0.277
'0:00.105',-0.348,-3.268,-2.92,1.808,1.286,-3.094,0.249,0.286,0.496,-0.38,0.491,0.091,-0.338,-1.228,0.277
'0:00.106',-0.346,-3.27,-2.924,1.808,1.289,-3.098,0.248,0.285,0.497,-0.378,0.491,0.092,-0.336,-1.234,0.277
'0:00.107',-0.347,-3.27,-2.923,1.808,1.288,-3.097,0.249,0.287,0.498,-0.377,0.492,0.093,-0.335,-1.23,0.278
'0:00.108',-0.348,-3.275,-2.925,1.812,1.288,-3.1,0.252,0.288,0.498,-0.378,0.493,0.094,-0.333,-1.232,0.278
'0:00.109',-0.346,-3.273,-2.928,1.81,1.29,-3.1,0.253,0.291,0.501,-0.374,0.495,0.097,-0.333,-1.236,0.276
'0:00.110',-0.344,-3.271,-2.927,1.808,1.291,-3.099,0.253,0.291,0.5,-0.374,0.496,0.098,-0.335,-1.236,0.274
'0:00.111',-0.347,-3.273,-2.926,1.81,1.29,-3.1,0.255,0.29,0.5,-0.374,0.496,0.097,-0.336,-1.236,0.274
'0:00.112',-0.348,-3.276,-2.929,1.812,1.29,-3.103,0.255,0.29,0.501,-0.375,0.493,0.096,-0.335,-1.237,0.275
'0:00.113',-0.347,-3.277,-2.93,1.812,1.291,-3.104,0.256,0.29,0.501,-0.375,0.493,0.095,-0.337,-1.239,0.272
'0:00.114',-0.347,-3.276,-2.929,1.812,1.291,-3.103,0.257,0.291,0.501,-0.374,0.493,0.096,-0.336,-1.238,0.271
'0:00.115',-0.343,-3.273,-2.93,1.808,1.294,-3.102,0.257,0.292,0.5,-0.374,0.493,0.097,-0.331,-1.235,0.274
'0:00.116',-0.346,-3.276,-2.929,1.811,1.292,-3.103,0.257,0.29,0.501,-0.374,0.493,0.096,-0.335,-1.236,0.273
'0:00.117',-0.349,-3.275,-2.926,1.812,1.288,-3.101,0.255,0.289,0.498,-0.376,0.491,0.094,-0.337,-1.234,0.274
'0:00.118',-0.347,-3.271,-2.924,1.809,1.288,-3.098,0.257,0.295,0.503,-0.372,0.494,0.099,-0.334,-1.23,0.274
'0:00.119',-0.347,-3.272,-2.925,1.81,1.288,-3.099,0.257,0.298,0.507,-0.368,0.497,0.099,-0.333,-1.234,0.273
'0:00.120',-0.345,-3.273,-2.928,1.809,1.292,-3.101,0.256,0.297,0.504,-0.371,0.493,0.097,-0.333,-1.235,0.273
'0:00.121',-0.344,-3.272,-2.929,1.808,1.292,-3.1,0.257,0.298,0.504,-0.373,0.494,0.098,-0.333,-1.235,0.273
'0:00.122',-0.344,-3.271,-2.927,1.808,1.292,-3.099,0.258,0.299,0.505,-0.373,0.495,0.096,-0.334,-1.236,0.271
'0:00.123',-0.346,-3.269,-2.924,1.808,1.288,-3.097,0.259,0.299,0.507,-0.372,0.492,0.093,-0.336,-1.236,0.271
'0:00.124',-0.347,-3.269,-2.923,1.808,1.288,-3.096,0.259,0.298,0.507,-0.372,0.493,0.093,-0.336,-1.232,0.271
'0:00.125',-0.347,-3.272,-2.925,1.81,1.289,-3.099,0.258,0.297,0.506,-0.371,0.495,0.094,-0.334,-1.232,0.271
'0:00.126',-0.347,-3.273,-2.925,1.81,1.289,-3.099,0.258,0.297,0.506,-0.371,0.493,0.092,-0.335,-1.235,0.271
'0:00.127',-0.345,-3.271,-2.925,1.808,1.29,-3.098,0.258,0.298,0.507,-0.37,0.492,0.092,-0.336,-1.232,0.269
'0:00.128',-0.343,-3.268,-2.925,1.806,1.291,-3.097,0.262,0.303,0.512,-0.366,0.497,0.097,-0.335,-1.228,0.267
'0:00.129',-0.34,-3.269,-2.929,1.804,1.294,-3.099,0.262,0.305,0.512,-0.368,0.498,0.096,-0.333,-1.23,0.268
'0:00.130',-0.339,-3.274,-2.934,1.806,1.298,-3.104,0.26,0.302,0.509,-0.371,0.494,0.096,-0.332,-1.235,0.271
'0:00.131',-0.342,-3.275,-2.933,1.808,1.296,-3.104,0.262,0.303,0.509,-0.371,0.495,0.098,-0.335,-1.233,0.27
'0:00.132',-0.342,-3.274,-2.932,1.808,1.294,-3.103,0.264,0.304,0.51,-0.369,0.499,0.1,-0.333,-1.236,0.268
'0:00.133',-0.348,-3.279,-2.93,1.814,1.29,-3.105,0.265,0.304,0.508,-0.367,0.498,0.098,-0.336,-1.24,0.268
'0:00.134',-0.353,-3.28,-2.926,1.817,1.286,-3.103,0.267,0.303,0.508,-0.368,0.496,0.093,-0.339,-1.238,0.268
'0:00.135',-0.35,-3.28,-2.929,1.815,1.29,-3.105,0.267,0.302,0.505,-0.368,0.496,0.095,-0.336,-1.237,0.269
'0:00.136',-0.349,-3.281,-2.933,1.815,1.292,-3.107,0.267,0.302,0.505,-0.368,0.494,0.097,-0.336,-1.235,0.267
'0:00.137',-0.349,-3.279,-2.929,1.814,1.289,-3.104,0.272,0.304,0.508,-0.366,0.495,0.097,-0.337,-1.234,0.263
'0:00.138',-0.353,-3.281,-2.928,1.817,1.286,-3.104,0.276,0.307,0.512,-0.361,0.496,0.096,-0.338,-1.24,0.261
'0:00.139',-0.355,-3.28,-2.925,1.818,1.284,-3.103,0.28,0.31,0.514,-0.361,0.495,0.093,-0.338,-1.24,0.259
'0:00.140',-0.354,-3.277,-2.922,1.816,1.284,-3.1,0.289,0.315,0.515,-0.362,0.494,0.093,-0.344,-1.236,0.254
'0:00.141',-0.36,-3.281,-2.921,1.821,1.28,-3.102,0.296,0.312,0.51,-0.369,0.487,0.088,-0.348,-1.239,0.252
'0:00.142',-0.367,-3.285,-2.918,1.827,1.275,-3.102,0.305,0.311,0.503,-0.382,0.477,0.08,-0.357,-1.241,0.248
'0:00.143',-0.373,-3.292,-2.918,1.833,1.272,-3.106,0.321,0.317,0.5,-0.393,0.467,0.072,-0.367,-1.248,0.242
'0:00.144',-0.38,-3.296,-2.917,1.839,1.268,-3.107,0.34,0.325,0.497,-0.406,0.455,0.062,-0.381,-1.254,0.233
'0:00.145',-0.389,-3.3,-2.91,1.844,1.26,-3.105,0.369,0.339,0.494,-0.422,0.438,0.049,-0.399,-1.255,0.217
'0:00.146',-0.4,-3.299,-2.899,1.849,1.249,-3.099,0.404,0.352,0.489,-0.44,0.417,0.035,-0.416,-1.254,0.199
'0:00.147',-0.408,-3.292,-2.884,1.851,1.237,-3.088,0.432,0.371,0.495,-0.447,0.408,0.025,-0.428,-1.246,0.177
'0:00.148',-0.418,-3.28,-2.861,1.849,1.221,-3.071,0.458,0.383,0.498,-0.451,0.403,0.021,-0.438,-1.233,0.157
'0:00.149',-0.429,-3.271,-2.841,1.85,1.206,-3.057,0.485,0.39,0.489,-0.467,0.39,0.012,-0.451,-1.228,0.139
'0:00.150',-0.439,-3.276,-2.837,1.857,1.199,-3.057,0.515,0.403,0.483,-0.484,0.374,0.001,-0.465,-1.232,0.124
'0:00.151',-0.444,-3.281,-2.838,1.863,1.197,-3.061,0.544,0.426,0.49,-0.489,0.367,-0.007,-0.474,-1.241,0.104
'0:00.152',-0.447,-3.276,-2.829,1.861,1.191,-3.054,0.578,0.457,0.509,-0.483,0.366,-0.012,-0.479,-1.24,0.076
'0:00.153',-0.439,-3.258,-2.818,1.849,1.19,-3.038,0.598,0.494,0.545,-0.451,0.389,0.003,-0.463,-1.22,0.051
'0:00.154',-0.417,-3.244,-2.828,1.831,1.205,-3.036,0.609,0.535,0.594,-0.404,0.427,0.026,-0.433,-1.214,0.029
'0:00.155',-0.401,-3.252,-2.851,1.826,1.225,-3.051,0.618,0.573,0.634,-0.362,0.459,0.044,-0.408,-1.229,0.013
'0:00.156',-0.38,-3.253,-2.874,1.817,1.247,-3.064,0.63,0.617,0.683,-0.313,0.496,0.068,-0.378,-1.236,-0.007
'0:00.157',-0.353,-3.247,-2.893,1.8,1.27,-3.07,0.644,0.664,0.74,-0.257,0.542,0.098,-0.339,-1.236,-0.031
'0:00.158',-0.316,-3.236,-2.921,1.776,1.302,-3.079,0.66,0.744,0.832,-0.168,0.608,0.138,-0.284,-1.242,-0.062
'0:00.159',-0.271,-3.211,-2.941,1.74,1.335,-3.076,0.661,0.822,0.936,-0.058,0.696,0.194,-0.211,-1.234,-0.092
'0:00.160',-0.228,-3.192,-2.965,1.71,1.368,-3.079,0.631,0.865,1.016,0.043,0.779,0.248,-0.142,-1.227,-0.099
'0:00.161',-0.17,-3.175,-3.005,1.673,1.417,-3.09,0.593,0.926,1.118,0.164,0.879,0.313,-0.057,-1.221,-0.105
'0:00.162',-0.095,-3.142,-3.046,1.619,1.476,-3.095,0.555,1.019,1.262,0.329,1.016,0.402,0.059,-1.21,-0.127
'0:00.163',-0.02,-3.112,-3.092,1.566,1.536,-3.103,0.537,1.139,1.435,0.517,1.163,0.492,0.175,-1.202,-0.16
'0:00.164',0.045,-3.062,-3.107,1.508,1.576,-3.085,0.495,1.222,1.583,0.687,1.295,0.575,0.281,-1.172,-0.175
'0:00.165',0.112,-3.006,-3.118,1.448,1.614,-3.062,0.435,1.296,1.724,0.853,1.429,0.659,0.385,-1.141,-0.185
'0:00.166',0.185,-2.933,-3.119,1.374,1.651,-3.026,0.378,1.376,1.879,1.042,1.583,0.757,0.502,-1.091,-0.203
'0:00.167',0.254,-2.859,-3.112,1.303,1.683,-2.986,0.304,1.419,2.013,1.22,1.732,0.853,0.621,-1.041,-0.202
'0:00.168',0.318,-2.788,-3.106,1.236,1.712,-2.947,0.233,1.47,2.156,1.408,1.885,0.947,0.735,-0.993,-0.204
'0:00.169',0.38,-2.694,-3.074,1.158,1.726,-2.885,0.14,1.507,2.293,1.593,2.037,1.04,0.843,-0.917,-0.203
'0:00.170',0.443,-2.615,-3.058,1.087,1.75,-2.837,0.037,1.53,2.414,1.771,2.186,1.135,0.961,-0.862,-0.185
'0:00.171',0.496,-2.544,-3.04,1.024,1.768,-2.792,-0.042,1.539,2.524,1.942,2.326,1.224,1.069,-0.81,-0.17
'0:00.172',0.531,-2.482,-3.013,0.976,1.772,-2.748,-0.115,1.502,2.576,2.054,2.427,1.289,1.143,-0.763,-0.139
'0:00.173',0.562,-2.424,-2.986,0.931,1.774,-2.705,-0.194,1.455,2.615,2.154,2.518,1.349,1.212,-0.717,-0.102
'0:00.174',0.59,-2.369,-2.958,0.89,1.774,-2.664,-0.283,1.387,2.623,2.224,2.587,1.399,1.269,-0.672,-0.051
'0:00.175',0.626,-2.305,-2.931,0.84,1.778,-2.619,-0.409,1.305,2.637,2.308,2.672,1.462,1.348,-0.628,0.017
'0:00.176',0.665,-2.223,-2.888,0.779,1.776,-2.555,-0.564,1.196,2.644,2.4,2.768,1.532,1.435,-0.565,0.091
'0:00.177',0.693,-2.119,-2.812,0.714,1.752,-2.466,-0.723,1.05,2.6,2.45,2.845,1.595,1.509,-0.479,0.171
'0:00.178',0.715,-2.045,-2.759,0.665,1.736,-2.401,-0.818,0.998,2.651,2.56,2.942,1.655,1.581,-0.419,0.196
'0:00.179',0.699,-2.068,-2.767,0.685,1.732,-2.417,-0.83,0.985,2.681,2.603,2.958,1.653,1.579,-0.431,0.202
'0:00.180',0.66,-2.139,-2.799,0.74,1.73,-2.469,-0.838,0.91,2.614,2.546,2.895,1.604,1.524,-0.48,0.237
'0:00.181',0.619,-2.209,-2.828,0.795,1.724,-2.519,-0.874,0.807,2.539,2.499,2.849,1.563,1.475,-0.525,0.283
'0:00.182',0.566,-2.25,-2.816,0.843,1.69,-2.533,-0.907,0.706,2.435,2.404,2.771,1.512,1.407,-0.538,0.332
'0:00.183',0.52,-2.284,-2.804,0.882,1.661,-2.544,-0.906,0.642,2.357,2.312,2.686,1.457,1.336,-0.553,0.364
'0:00.184',0.477,-2.316,-2.793,0.92,1.635,-2.555,-0.884,0.58,2.269,2.219,2.601,1.402,1.266,-0.571,0.386
'0:00.185',0.423,-2.368,-2.792,0.973,1.607,-2.58,-0.842,0.533,2.167,2.083,2.474,1.323,1.171,-0.596,0.402
'0:00.186',0.358,-2.454,-2.813,1.048,1.585,-2.634,-0.778,0.504,2.056,1.9,2.292,1.21,1.039,-0.65,0.417
'0:00.187',0.292,-2.562,-2.853,1.135,1.573,-2.708,-0.693,0.467,1.897,1.641,2.047,1.065,0.876,-0.726,0.442
'0:00.188',0.214,-2.7,-2.914,1.244,1.564,-2.807,-0.587,0.462,1.749,1.376,1.792,0.905,0.702,-0.828,0.453
'0:00.189',0.128,-2.788,-2.915,1.33,1.521,-2.852,-0.505,0.394,1.53,1.08,1.552,0.764,0.536,-0.888,0.473
'0:00.190',0.045,-2.825,-2.869,1.389,1.457,-2.847,-0.436,0.281,1.249,0.734,1.315,0.638,0.38,-0.905,0.507
'0:00.191',-0.035,-2.86,-2.825,1.448,1.395,-2.842,-0.392,0.182,0.974,0.401,1.091,0.519,0.233,-0.927,0.539
'0:00.192',-0.079,-2.905,-2.826,1.492,1.374,-2.866,-0.365,0.135,0.797,0.189,0.949,0.44,0.14,-0.966,0.556
'0:00.193',-0.101,-2.964,-2.864,1.532,1.381,-2.914,-0.32,0.151,0.72,0.068,0.866,0.386,0.083,-1.016,0.548
'0:00.194',-0.128,-3.021,-2.893,1.574,1.383,-2.957,-0.259,0.152,0.611,-0.078,0.777,0.335,0.021,-1.059,0.541
'0:00.195',-0.146,-3.078,-2.933,1.612,1.393,-3.006,-0.173,0.2,0.573,-0.163,0.722,0.299,-0.029,-1.104,0.51
'0:00.196',-0.155,-3.12,-2.966,1.638,1.405,-3.043,-0.092,0.269,0.604,-0.171,0.708,0.281,-0.055,-1.139,0.467
'0:00.197',-0.162,-3.143,-2.981,1.652,1.409,-3.062,-0.035,0.322,0.647,-0.144,0.719,0.278,-0.063,-1.158,0.428
'0:00.198',-0.167,-3.15,-2.983,1.658,1.409,-3.067,0.014,0.386,0.728,-0.076,0.75,0.285,-0.054,-1.166,0.382
'0:00.199',-0.169,-3.152,-2.983,1.66,1.407,-3.068,0.06,0.438,0.792,-0.024,0.777,0.293,-0.054,-1.169,0.337
'0:00.200',-0.174,-3.158,-2.983,1.667,1.404,-3.071,0.103,0.487,0.85,0.018,0.798,0.297,-0.058,-1.17,0.293
'0:00.201',-0.183,-3.159,-2.977,1.671,1.397,-3.068,0.143,0.525,0.896,0.054,0.813,0.296,-0.058,-1.172,0.258
'0:00.202',-0.192,-3.157,-2.965,1.675,1.387,-3.062,0.172,0.547,0.925,0.076,0.824,0.295,-0.061,-1.168,0.23
'0:00.203',-0.195,-3.147,-2.951,1.671,1.378,-3.05,0.191,0.571,0.951,0.099,0.838,0.301,-0.061,-1.156,0.204
'0:00.204',-0.199,-3.143,-2.944,1.671,1.373,-3.043,0.212,0.59,0.968,0.111,0.842,0.303,-0.062,-1.152,0.184
'0:00.205',-0.202,-3.136,-2.935,1.669,1.367,-3.036,0.227,0.602,0.98,0.118,0.845,0.304,-0.066,-1.145,0.168
'0:00.206',-0.205,-3.131,-2.926,1.668,1.36,-3.029,0.239,0.612,0.986,0.12,0.845,0.302,-0.07,-1.139,0.154
'0:00.207',-0.209,-3.129,-2.921,1.669,1.355,-3.025,0.255,0.613,0.984,0.115,0.839,0.296,-0.079,-1.135,0.146
'0:00.208',-0.212,-3.126,-2.913,1.669,1.35,-3.02,0.261,0.604,0.967,0.096,0.826,0.289,-0.093,-1.133,0.146
'0:00.209',-0.223,-3.132,-2.91,1.677,1.343,-3.022,0.262,0.584,0.94,0.067,0.803,0.277,-0.108,-1.139,0.153
'0:00.210',-0.229,-3.136,-2.907,1.683,1.339,-3.022,0.264,0.566,0.915,0.04,0.784,0.266,-0.12,-1.143,0.161
'0:00.211',-0.237,-3.142,-2.904,1.69,1.333,-3.022,0.267,0.552,0.893,0.016,0.767,0.257,-0.134,-1.143,0.166
'0:00.212',-0.246,-3.15,-2.904,1.698,1.328,-3.027,0.272,0.539,0.873,-0.006,0.749,0.247,-0.145,-1.145,0.172
'0:00.213',-0.252,-3.155,-2.902,1.704,1.325,-3.029,0.271,0.527,0.849,-0.029,0.731,0.237,-0.157,-1.152,0.176
'0:00.214',-0.261,-3.161,-2.901,1.711,1.319,-3.031,0.271,0.516,0.83,-0.051,0.714,0.227,-0.168,-1.155,0.18
'0:00.215',-0.265,-3.167,-2.902,1.716,1.318,-3.034,0.275,0.508,0.815,-0.069,0.702,0.221,-0.175,-1.157,0.182
'0:00.216',-0.27,-3.171,-2.901,1.72,1.315,-3.037,0.277,0.501,0.798,-0.084,0.69,0.213,-0.185,-1.16,0.183
'0:00.217',-0.276,-3.177,-2.901,1.726,1.312,-3.039,0.282,0.495,0.783,-0.102,0.676,0.205,-0.196,-1.163,0.186
'0:00.218',-0.278,-3.183,-2.905,1.73,1.314,-3.045,0.287,0.491,0.771,-0.117,0.665,0.2,-0.202,-1.169,0.187
'0:00.219',-0.28,-3.186,-2.906,1.733,1.312,-3.046,0.288,0.486,0.762,-0.128,0.656,0.194,-0.209,-1.173,0.188
'0:00.220',-0.283,-3.188,-2.905,1.736,1.31,-3.047,0.291,0.48,0.752,-0.142,0.647,0.188,-0.218,-1.174,0.186
'0:00.221',-0.284,-3.192,-2.908,1.738,1.312,-3.05,0.294,0.477,0.744,-0.152,0.639,0.183,-0.225,-1.175,0.185
'0:00.222',-0.288,-3.196,-2.908,1.742,1.309,-3.052,0.294,0.472,0.733,-0.165,0.63,0.179,-0.229,-1.177,0.189
'0:00.223',-0.291,-3.199,-2.908,1.745,1.308,-3.053,0.296,0.467,0.726,-0.175,0.623,0.173,-0.235,-1.181,0.19
'0:00.224',-0.295,-3.204,-2.908,1.75,1.306,-3.056,0.299,0.465,0.719,-0.182,0.616,0.17,-0.239,-1.183,0.19
'0:00.225',-0.302,-3.209,-2.906,1.756,1.302,-3.058,0.299,0.462,0.712,-0.191,0.612,0.167,-0.24,-1.185,0.19
'0:00.226',-0.3,-3.208,-2.909,1.754,1.304,-3.059,0.301,0.461,0.71,-0.196,0.609,0.166,-0.243,-1.187,0.188
'0:00.227',-0.299,-3.21,-2.91,1.754,1.306,-3.061,0.302,0.459,0.706,-0.2,0.607,0.164,-0.247,-1.187,0.187
'0:00.228',-0.303,-3.213,-2.91,1.758,1.303,-3.062,0.304,0.456,0.701,-0.205,0.602,0.161,-0.248,-1.189,0.188
'0:00.229',-0.305,-3.217,-2.912,1.762,1.303,-3.065,0.307,0.455,0.696,-0.211,0.597,0.159,-0.254,-1.194,0.187
'0:00.230',-0.305,-3.222,-2.916,1.764,1.305,-3.07,0.308,0.456,0.693,-0.216,0.596,0.157,-0.255,-1.197,0.188
'0:00.231',-0.31,-3.226,-2.916,1.768,1.302,-3.071,0.312,0.455,0.691,-0.219,0.594,0.155,-0.257,-1.204,0.186
'0:00.232',-0.312,-3.227,-2.914,1.77,1.301,-3.071,0.314,0.454,0.688,-0.223,0.592,0.154,-0.259,-1.204,0.184
'0:00.233',-0.309,-3.226,-2.917,1.768,1.304,-3.072,0.315,0.455,0.687,-0.225,0.592,0.155,-0.26,-1.199,0.184
'0:00.234',-0.31,-3.226,-2.916,1.768,1.302,-3.071,0.317,0.456,0.685,-0.228,0.59,0.155,-0.262,-1.201,0.183
'0:00.235',-0.312,-3.228,-2.916,1.77,1.302,-3.072,0.317,0.455,0.681,-0.229,0.589,0.153,-0.261,-1.199,0.182
'0:00.236',-0.312,-3.23,-2.918,1.771,1.303,-3.074,0.317,0.453,0.678,-0.232,0.587,0.15,-0.264,-1.198,0.181
'0:00.237',-0.311,-3.23,-2.919,1.77,1.304,-3.075,0.318,0.452,0.676,-0.236,0.587,0.149,-0.266,-1.202,0.18
'0:00.238',-0.315,-3.233,-2.918,1.774,1.302,-3.076,0.319,0.452,0.675,-0.235,0.588,0.151,-0.265,-1.2,0.181
'0:00.239',-0.315,-3.232,-2.917,1.774,1.3,-3.075,0.32,0.451,0.67,-0.239,0.584,0.149,-0.269,-1.202,0.179
'0:00.240',-0.316,-3.232,-2.916,1.774,1.3,-3.074,0.32,0.45,0.669,-0.241,0.583,0.147,-0.272,-1.206,0.178
'0:00.241',-0.318,-3.236,-2.917,1.776,1.3,-3.076,0.321,0.45,0.67,-0.24,0.585,0.15,-0.267,-1.204,0.18
'0:00.242',-0.316,-3.233,-2.918,1.774,1.3,-3.076,0.321,0.451,0.666,-0.241,0.584,0.149,-0.268,-1.202,0.179
'0:00.243',-0.317,-3.232,-2.915,1.774,1.299,-3.074,0.322,0.451,0.666,-0.242,0.584,0.148,-0.273,-1.203,0.176
'0:00.244',-0.314,-3.231,-2.917,1.772,1.301,-3.075,0.323,0.453,0.667,-0.241,0.584,0.149,-0.273,-1.204,0.175
'0:00.245',-0.313,-3.229,-2.917,1.772,1.302,-3.074,0.324,0.454,0.668,-0.239,0.585,0.15,-0.268,-1.202,0.176
'0:00.246',-0.317,-3.229,-2.913,1.773,1.298,-3.071,0.326,0.453,0.668,-0.241,0.585,0.15,-0.27,-1.2,0.173
'0:00.247',-0.316,-3.229,-2.913,1.772,1.298,-3.071,0.325,0.452,0.667,-0.242,0.583,0.149,-0.27,-1.202,0.172
'0:00.248',-0.317,-3.23,-2.913,1.774,1.298,-3.071,0.326,0.453,0.668,-0.24,0.581,0.148,-0.271,-1.206,0.172
'0:00.249',-0.318,-3.228,-2.911,1.773,1.296,-3.07,0.328,0.455,0.669,-0.24,0.581,0.146,-0.276,-1.202,0.17
'0:00.250',-0.316,-3.225,-2.91,1.77,1.297,-3.068,0.328,0.454,0.669,-0.24,0.579,0.146,-0.275,-1.198,0.171
'0:00.251',-0.317,-3.228,-2.912,1.773,1.297,-3.071,0.329,0.454,0.669,-0.239,0.576,0.145,-0.276,-1.202,0.169
'0:00.252',-0.316,-3.231,-2.914,1.774,1.299,-3.072,0.329,0.455,0.672,-0.239,0.577,0.144,-0.277,-1.206,0.168
'0:00.253',-0.315,-3.229,-2.915,1.772,1.3,-3.072,0.33,0.456,0.671,-0.237,0.578,0.146,-0.274,-1.206,0.169
'0:00.254',-0.315,-3.23,-2.916,1.772,1.3,-3.073,0.331,0.456,0.668,-0.241,0.576,0.145,-0.275,-1.203,0.168
'0:00.255',-0.314,-3.228,-2.914,1.772,1.3,-3.071,0.332,0.457,0.669,-0.24,0.573,0.143,-0.277,-1.201,0.169
'0:00.256',-0.316,-3.228,-2.913,1.772,1.298,-3.071,0.331,0.458,0.67,-0.239,0.574,0.142,-0.277,-1.204,0.168
'0:00.257',-0.316,-3.23,-2.914,1.773,1.299,-3.072,0.33,0.457,0.67,-0.24,0.574,0.142,-0.279,-1.206,0.166
'0:00.258',-0.318,-3.23,-2.913,1.774,1.298,-3.071,0.332,0.457,0.671,-0.237,0.574,0.141,-0.28,-1.204,0.165
'0:00.259',-0.322,-3.233,-2.911,1.778,1.294,-3.072,0.333,0.459,0.673,-0.237,0.574,0.139,-0.28,-1.203,0.167
'0:00.260',-0.322,-3.235,-2.913,1.778,1.295,-3.074,0.334,0.461,0.673,-0.237,0.574,0.139,-0.281,-1.203,0.166
'0:00.261',-0.321,-3.235,-2.914,1.778,1.296,-3.075,0.335,0.462,0.674,-0.236,0.575,0.141,-0.28,-1.202,0.164
'0:00.262',-0.322,-3.237,-2.915,1.78,1.296,-3.076,0.337,0.465,0.674,-0.239,0.574,0.141,-0.282,-1.206,0.165
'0:00.263',-0.323,-3.235,-2.912,1.778,1.294,-3.074,0.339,0.465,0.675,-0.236,0.573,0.137,-0.285,-1.203,0.164
'0:00.264',-0.321,-3.233,-2.913,1.778,1.296,-3.074,0.338,0.466,0.677,-0.234,0.575,0.137,-0.281,-1.2,0.164
'0:00.265',-0.318,-3.236,-2.917,1.776,1.299,-3.076,0.339,0.467,0.678,-0.234,0.573,0.137,-0.282,-1.202,0.163
'0:00.266',-0.322,-3.237,-2.916,1.78,1.296,-3.076,0.341,0.469,0.68,-0.233,0.572,0.134,-0.286,-1.2,0.161
'0:00.267',-0.324,-3.238,-2.915,1.781,1.296,-3.077,0.341,0.47,0.683,-0.232,0.573,0.133,-0.283,-1.2,0.162
'0:00.268',-0.323,-3.236,-2.913,1.78,1.296,-3.075,0.342,0.47,0.682,-0.231,0.575,0.136,-0.281,-1.196,0.162
'0:00.269',-0.323,-3.232,-2.909,1.777,1.293,-3.071,0.342,0.472,0.685,-0.229,0.577,0.137,-0.28,-1.196,0.161
'0:00.270',-0.318,-3.228,-2.91,1.773,1.296,-3.07,0.341,0.473,0.689,-0.226,0.578,0.137,-0.278,-1.196,0.161
'0:00.271',-0.317,-3.227,-2.91,1.772,1.296,-3.068,0.341,0.473,0.688,-0.225,0.578,0.137,-0.278,-1.197,0.162
'0:00.272',-0.318,-3.225,-2.908,1.772,1.295,-3.067,0.341,0.477,0.69,-0.223,0.58,0.136,-0.277,-1.198,0.161
'0:00.273',-0.316,-3.225,-2.909,1.77,1.297,-3.067,0.342,0.478,0.692,-0.22,0.582,0.138,-0.275,-1.198,0.162
'0:00.274',-0.317,-3.224,-2.907,1.77,1.295,-3.066,0.341,0.478,0.69,-0.22,0.58,0.14,-0.274,-1.197,0.161
'0:00.275',-0.319,-3.226,-2.908,1.772,1.294,-3.067,0.341,0.478,0.692,-0.217,0.581,0.141,-0.274,-1.195,0.16
'0:00.276',-0.32,-3.226,-2.907,1.772,1.294,-3.067,0.343,0.48,0.694,-0.213,0.582,0.141,-0.275,-1.196,0.158
'0:00.277',-0.318,-3.224,-2.906,1.771,1.294,-3.066,0.344,0.484,0.697,-0.21,0.583,0.142,-0.274,-1.192,0.155
'0:00.278',-0.317,-3.225,-2.909,1.772,1.296,-3.067,0.344,0.485,0.701,-0.204,0.59,0.148,-0.27,-1.192,0.153
'0:00.279',-0.32,-3.229,-2.909,1.774,1.294,-3.07,0.343,0.485,0.699,-0.203,0.587,0.145,-0.269,-1.197,0.156
'0:00.280',-0.319,-3.229,-2.91,1.774,1.296,-3.07,0.343,0.487,0.701,-0.2,0.586,0.142,-0.27,-1.2,0.156
'0:00.281',-0.319,-3.227,-2.909,1.773,1.295,-3.068,0.343,0.489,0.705,-0.194,0.589,0.146,-0.267,-1.198,0.153
'0:00.282',-0.319,-3.228,-2.909,1.773,1.295,-3.068,0.345,0.488,0.703,-0.198,0.586,0.144,-0.269,-1.194,0.153
'0:00.283',-0.317,-3.224,-2.908,1.77,1.296,-3.067,0.345,0.488,0.704,-0.198,0.587,0.146,-0.27,-1.192,0.152
'0:00.284',-0.317,-3.224,-2.907,1.77,1.295,-3.066,0.343,0.488,0.705,-0.196,0.588,0.145,-0.266,-1.192,0.153
'0:00.285',-0.315,-3.223,-2.909,1.769,1.297,-3.067,0.343,0.489,0.706,-0.195,0.588,0.144,-0.265,-1.192,0.153
'0:00.286',-0.312,-3.222,-2.91,1.767,1.299,-3.067,0.342,0.489,0.705,-0.197,0.588,0.146,-0.264,-1.192,0.153
'0:00.287',-0.311,-3.223,-2.911,1.767,1.3,-3.067,0.344,0.492,0.709,-0.193,0.589,0.146,-0.263,-1.192,0.152
'0:00.288',-0.312,-3.221,-2.909,1.767,1.298,-3.066,0.345,0.496,0.713,-0.19,0.59,0.148,-0.264,-1.194,0.151
'0:00.289',-0.313,-3.222,-2.909,1.768,1.298,-3.066,0.345,0.495,0.712,-0.19,0.59,0.149,-0.263,-1.194,0.151
'0:00.290',-0.312,-3.22,-2.907,1.766,1.297,-3.063,0.348,0.498,0.715,-0.186,0.591,0.149,-0.263,-1.194,0.149
'0:00.291',-0.311,-3.219,-2.908,1.766,1.298,-3.063,0.349,0.501,0.717,-0.186,0.592,0.148,-0.264,-1.195,0.146
'0:00.292',-0.314,-3.22,-2.908,1.767,1.296,-3.064,0.348,0.501,0.717,-0.185,0.593,0.149,-0.262,-1.193,0.145
'0:00.293',-0.315,-3.219,-2.904,1.767,1.294,-3.062,0.349,0.502,0.719,-0.183,0.594,0.15,-0.261,-1.19,0.143
'0:00.294',-0.312,-3.217,-2.905,1.764,1.296,-3.061,0.351,0.502,0.721,-0.182,0.594,0.15,-0.26,-1.19,0.142
'0:00.295',-0.312,-3.213,-2.901,1.762,1.294,-3.058,0.351,0.504,0.721,-0.181,0.594,0.15,-0.26,-1.19,0.143
'0:00.296',-0.311,-3.212,-2.901,1.762,1.295,-3.057,0.352,0.507,0.724,-0.179,0.595,0.15,-0.26,-1.19,0.141
'0:00.297',-0.312,-3.213,-2.901,1.762,1.294,-3.057,0.353,0.508,0.726,-0.178,0.594,0.15,-0.26,-1.187,0.14
'0:00.298',-0.312,-3.215,-2.902,1.764,1.294,-3.058,0.351,0.508,0.726,-0.179,0.593,0.151,-0.259,-1.187,0.139
'0:00.299',-0.312,-3.216,-2.904,1.764,1.296,-3.06,0.352,0.513,0.73,-0.178,0.595,0.153,-0.259,-1.189,0.136
'0:00.300',-0.312,-3.212,-2.9,1.762,1.294,-3.057,0.352,0.513,0.729,-0.178,0.594,0.151,-0.26,-1.185,0.137
'0:00.301',-0.311,-3.209,-2.898,1.76,1.294,-3.054,0.353,0.516,0.733,-0.174,0.595,0.152,-0.26,-1.181,0.136
'0:00.302',-0.309,-3.208,-2.9,1.759,1.294,-3.054,0.352,0.52,0.74,-0.17,0.598,0.153,-0.256,-1.183,0.136
'0:00.303',-0.306,-3.208,-2.902,1.758,1.298,-3.055,0.349,0.516,0.734,-0.174,0.596,0.152,-0.254,-1.183,0.137
'0:00.304',-0.308,-3.208,-2.9,1.758,1.296,-3.054,0.351,0.516,0.734,-0.176,0.597,0.151,-0.258,-1.183,0.135
'0:00.305',-0.309,-3.211,-2.901,1.76,1.296,-3.056,0.351,0.52,0.737,-0.172,0.598,0.15,-0.258,-1.181,0.134
'0:00.306',-0.311,-3.211,-2.9,1.76,1.294,-3.055,0.352,0.521,0.741,-0.167,0.601,0.153,-0.254,-1.181,0.133
'0:00.307',-0.312,-3.208,-2.896,1.76,1.291,-3.052,0.353,0.523,0.743,-0.163,0.603,0.154,-0.253,-1.183,0.131
'0:00.308',-0.31,-3.208,-2.897,1.759,1.292,-3.052,0.352,0.527,0.746,-0.162,0.603,0.154,-0.251,-1.179,0.131
'0:00.309',-0.31,-3.207,-2.897,1.758,1.293,-3.052,0.353,0.529,0.748,-0.162,0.604,0.156,-0.25,-1.179,0.131
'0:00.310',-0.31,-3.208,-2.898,1.758,1.294,-3.053,0.354,0.528,0.748,-0.161,0.605,0.156,-0.251,-1.181,0.13
'0:00.311',-0.309,-3.207,-2.897,1.758,1.294,-3.052,0.356,0.531,0.752,-0.155,0.608,0.159,-0.251,-1.177,0.128
'0:00.312',-0.311,-3.207,-2.896,1.759,1.292,-3.051,0.356,0.534,0.754,-0.153,0.61,0.159,-0.247,-1.177,0.128
'0:00.313',-0.31,-3.207,-2.897,1.758,1.294,-3.052,0.356,0.538,0.757,-0.151,0.612,0.16,-0.246,-1.177,0.127
'0:00.314',-0.307,-3.206,-2.898,1.757,1.296,-3.053,0.357,0.54,0.759,-0.15,0.612,0.159,-0.251,-1.178,0.124
'0:00.315',-0.305,-3.206,-2.901,1.756,1.298,-3.054,0.358,0.541,0.762,-0.149,0.614,0.16,-0.249,-1.177,0.122
'0:00.316',-0.301,-3.205,-2.904,1.753,1.301,-3.054,0.359,0.544,0.766,-0.145,0.617,0.164,-0.245,-1.176,0.121
'0:00.317',-0.302,-3.206,-2.904,1.754,1.3,-3.055,0.36,0.548,0.769,-0.142,0.617,0.163,-0.248,-1.179,0.119
'0:00.318',-0.302,-3.204,-2.901,1.754,1.299,-3.053,0.362,0.552,0.774,-0.137,0.622,0.165,-0.248,-1.177,0.117
'0:00.319',-0.304,-3.205,-2.901,1.754,1.298,-3.054,0.363,0.555,0.776,-0.136,0.623,0.164,-0.249,-1.177,0.117
'0:00.320',-0.301,-3.204,-2.904,1.752,1.301,-3.054,0.364,0.557,0.778,-0.137,0.622,0.162,-0.248,-1.178,0.116
'0:00.321',-0.299,-3.204,-2.905,1.752,1.303,-3.055,0.364,0.558,0.78,-0.135,0.622,0.167,-0.243,-1.175,0.117
'0:00.322',-0.305,-3.208,-2.902,1.757,1.298,-3.055,0.365,0.561,0.782,-0.134,0.623,0.168,-0.245,-1.181,0.116
'0:00.323',-0.309,-3.208,-2.898,1.758,1.294,-3.053,0.366,0.562,0.782,-0.136,0.622,0.165,-0.249,-1.18,0.112
'0:00.324',-0.31,-3.204,-2.894,1.758,1.292,-3.05,0.366,0.568,0.787,-0.132,0.625,0.166,-0.245,-1.177,0.11
'0:00.325',-0.309,-3.201,-2.892,1.756,1.291,-3.047,0.368,0.57,0.791,-0.129,0.628,0.17,-0.24,-1.177,0.108
'0:00.326',-0.306,-3.2,-2.893,1.752,1.294,-3.046,0.369,0.568,0.788,-0.131,0.627,0.169,-0.241,-1.175,0.11
'0:00.327',-0.304,-3.199,-2.894,1.752,1.294,-3.046,0.371,0.571,0.792,-0.128,0.628,0.169,-0.24,-1.173,0.11
'0:00.328',-0.301,-3.196,-2.895,1.748,1.297,-3.046,0.371,0.574,0.794,-0.124,0.63,0.169,-0.241,-1.171,0.106
'0:00.329',-0.298,-3.193,-2.894,1.746,1.298,-3.044,0.369,0.577,0.797,-0.122,0.631,0.168,-0.241,-1.167,0.105
'0:00.330',-0.3,-3.194,-2.893,1.748,1.296,-3.044,0.371,0.581,0.8,-0.117,0.634,0.169,-0.234,-1.169,0.105
'0:00.331',-0.3,-3.196,-2.894,1.748,1.296,-3.045,0.373,0.585,0.803,-0.115,0.634,0.169,-0.234,-1.171,0.103
'0:00.332',-0.3,-3.195,-2.894,1.748,1.297,-3.045,0.372,0.585,0.804,-0.114,0.636,0.171,-0.235,-1.169,0.103
'0:00.333',-0.301,-3.193,-2.892,1.747,1.296,-3.043,0.374,0.587,0.805,-0.111,0.639,0.172,-0.234,-1.167,0.102
'0:00.334',-0.3,-3.192,-2.892,1.746,1.296,-3.042,0.375,0.59,0.807,-0.11,0.637,0.17,-0.234,-1.166,0.102
'0:00.335',-0.301,-3.192,-2.89,1.746,1.294,-3.042,0.377,0.592,0.809,-0.109,0.637,0.17,-0.234,-1.165,0.099
'0:00.336',-0.301,-3.191,-2.89,1.746,1.294,-3.041,0.379,0.597,0.812,-0.104,0.64,0.17,-0.233,-1.161,0.097
'0:00.337',-0.294,-3.188,-2.893,1.741,1.3,-3.041,0.378,0.6,0.816,-0.102,0.645,0.171,-0.23,-1.161,0.097
'0:00.338',-0.289,-3.184,-2.894,1.736,1.302,-3.039,0.377,0.602,0.82,-0.099,0.647,0.172,-0.229,-1.161,0.096
'0:00.339',-0.292,-3.186,-2.894,1.739,1.301,-3.041,0.377,0.605,0.822,-0.097,0.645,0.172,-0.228,-1.164,0.096
'0:00.340',-0.292,-3.184,-2.892,1.738,1.3,-3.038,0.379,0.606,0.824,-0.097,0.644,0.169,-0.228,-1.164,0.095
'0:00.341',-0.29,-3.183,-2.893,1.736,1.301,-3.038,0.38,0.609,0.827,-0.095,0.645,0.168,-0.227,-1.159,0.095
'0:00.342',-0.289,-3.182,-2.893,1.736,1.302,-3.038,0.38,0.612,0.83,-0.092,0.646,0.169,-0.226,-1.158,0.092
'0:00.343',-0.291,-3.179,-2.888,1.736,1.298,-3.034,0.383,0.616,0.834,-0.089,0.647,0.17,-0.226,-1.159,0.09
'0:00.344',-0.291,-3.181,-2.889,1.736,1.299,-3.035,0.387,0.619,0.838,-0.086,0.647,0.17,-0.226,-1.16,0.09
'0:00.345',-0.288,-3.176,-2.888,1.732,1.3,-3.033,0.387,0.622,0.84,-0.086,0.646,0.171,-0.225,-1.155,0.088
'0:00.346',-0.287,-3.176,-2.889,1.732,1.3,-3.033,0.387,0.624,0.843,-0.085,0.647,0.171,-0.224,-1.159,0.086
'0:00.347',-0.289,-3.177,-2.888,1.733,1.299,-3.033,0.387,0.626,0.845,-0.084,0.649,0.17,-0.224,-1.161,0.086
'0:00.348',-0.289,-3.176,-2.886,1.732,1.298,-3.031,0.389,0.629,0.846,-0.083,0.647,0.168,-0.224,-1.159,0.084
'0:00.349',-0.289,-3.176,-2.888,1.732,1.299,-3.032,0.392,0.634,0.852,-0.078,0.652,0.171,-0.225,-1.158,0.082
'0:00.350',-0.288,-3.175,-2.886,1.732,1.299,-3.03,0.392,0.639,0.856,-0.075,0.656,0.174,-0.222,-1.155,0.081
'0:00.351',-0.286,-3.174,-2.889,1.73,1.301,-3.031,0.392,0.64,0.856,-0.074,0.652,0.17,-0.22,-1.158,0.08
'0:00.352',-0.287,-3.175,-2.887,1.731,1.3,-3.031,0.392,0.643,0.86,-0.072,0.653,0.171,-0.218,-1.159,0.078
'0:00.353',-0.29,-3.176,-2.886,1.733,1.298,-3.031,0.393,0.646,0.863,-0.071,0.654,0.172,-0.217,-1.16,0.079
'0:00.354',-0.289,-3.174,-2.885,1.732,1.298,-3.03,0.395,0.65,0.867,-0.069,0.657,0.173,-0.213,-1.157,0.078
'0:00.355',-0.285,-3.172,-2.887,1.728,1.3,-3.03,0.398,0.656,0.873,-0.064,0.661,0.177,-0.211,-1.152,0.075
'0:00.356',-0.283,-3.17,-2.886,1.726,1.302,-3.029,0.401,0.66,0.875,-0.061,0.664,0.177,-0.212,-1.15,0.071
'0:00.357',-0.289,-3.168,-2.88,1.729,1.295,-3.025,0.402,0.664,0.878,-0.058,0.664,0.178,-0.21,-1.149,0.069
'0:00.358',-0.289,-3.17,-2.88,1.73,1.295,-3.025,0.404,0.668,0.882,-0.054,0.665,0.179,-0.21,-1.151,0.067
'0:00.359',-0.286,-3.168,-2.881,1.727,1.298,-3.025,0.405,0.671,0.886,-0.051,0.668,0.181,-0.206,-1.151,0.068
'0:00.360',-0.287,-3.17,-2.881,1.728,1.296,-3.026,0.404,0.677,0.891,-0.045,0.671,0.181,-0.201,-1.151,0.069
'0:00.361',-0.285,-3.165,-2.88,1.725,1.297,-3.023,0.406,0.683,0.897,-0.04,0.672,0.182,-0.202,-1.144,0.064
'0:00.362',-0.284,-3.163,-2.879,1.724,1.297,-3.022,0.408,0.686,0.9,-0.037,0.672,0.183,-0.203,-1.145,0.064
'0:00.363',-0.284,-3.162,-2.878,1.723,1.297,-3.021,0.412,0.692,0.903,-0.035,0.672,0.181,-0.201,-1.151,0.061
'0:00.364',-0.284,-3.16,-2.877,1.722,1.296,-3.018,0.415,0.698,0.909,-0.032,0.676,0.185,-0.199,-1.147,0.059
'0:00.365',-0.285,-3.163,-2.877,1.724,1.296,-3.021,0.417,0.703,0.913,-0.03,0.676,0.183,-0.201,-1.145,0.057
'0:00.366',-0.282,-3.161,-2.879,1.722,1.298,-3.02,0.419,0.708,0.916,-0.027,0.675,0.18,-0.203,-1.143,0.056
'0:00.367',-0.282,-3.161,-2.879,1.722,1.298,-3.02,0.422,0.712,0.92,-0.023,0.676,0.182,-0.2,-1.141,0.054
'0:00.368',-0.281,-3.159,-2.877,1.72,1.298,-3.018,0.422,0.718,0.925,-0.018,0.677,0.18,-0.202,-1.14,0.051
'0:00.369',-0.279,-3.159,-2.88,1.719,1.3,-3.02,0.42,0.721,0.928,-0.016,0.679,0.181,-0.2,-1.143,0.051
'0:00.370',-0.28,-3.159,-2.88,1.719,1.3,-3.019,0.424,0.724,0.931,-0.011,0.681,0.181,-0.2,-1.142,0.048
'0:00.371',-0.28,-3.161,-2.881,1.72,1.3,-3.021,0.427,0.733,0.939,-0.006,0.685,0.184,-0.198,-1.143,0.044
'0:00.372',-0.278,-3.159,-2.882,1.718,1.302,-3.021,0.431,0.741,0.945,-0.002,0.69,0.188,-0.197,-1.145,0.042
'0:00.373',-0.274,-3.152,-2.879,1.713,1.302,-3.016,0.436,0.747,0.951,0.003,0.692,0.188,-0.199,-1.139,0.035
'0:00.374',-0.276,-3.155,-2.88,1.716,1.302,-3.018,0.433,0.751,0.957,0.006,0.695,0.19,-0.194,-1.139,0.034
'0:00.375',-0.274,-3.151,-2.878,1.713,1.302,-3.015,0.435,0.756,0.962,0.011,0.698,0.191,-0.193,-1.137,0.031
'0:00.376',-0.273,-3.15,-2.877,1.712,1.302,-3.014,0.438,0.762,0.968,0.014,0.701,0.192,-0.192,-1.133,0.029
'0:00.377',-0.275,-3.151,-2.877,1.713,1.301,-3.014,0.436,0.767,0.971,0.018,0.704,0.194,-0.188,-1.135,0.027
'0:00.378',-0.272,-3.147,-2.876,1.71,1.302,-3.012,0.438,0.773,0.977,0.022,0.708,0.196,-0.184,-1.135,0.025
'0:00.379',-0.271,-3.147,-2.877,1.709,1.303,-3.013,0.44,0.78,0.985,0.028,0.71,0.198,-0.183,-1.137,0.022
'0:00.380',-0.271,-3.149,-2.878,1.71,1.304,-3.014,0.444,0.787,0.993,0.036,0.713,0.2,-0.181,-1.14,0.018
'0:00.381',-0.27,-3.15,-2.88,1.71,1.305,-3.015,0.447,0.792,0.999,0.038,0.716,0.201,-0.181,-1.14,0.015
'0:00.382',-0.265,-3.147,-2.882,1.706,1.308,-3.015,0.449,0.798,1.004,0.04,0.72,0.203,-0.178,-1.133,0.012
'0:00.383',-0.264,-3.145,-2.881,1.704,1.308,-3.014,0.452,0.807,1.011,0.046,0.725,0.206,-0.176,-1.13,0.009
'0:00.384',-0.262,-3.143,-2.881,1.702,1.31,-3.012,0.454,0.814,1.017,0.054,0.727,0.209,-0.176,-1.13,0.004
'0:00.385',-0.259,-3.139,-2.881,1.699,1.31,-3.01,0.455,0.82,1.024,0.059,0.73,0.212,-0.169,-1.125,0.001
'0:00.386',-0.259,-3.136,-2.878,1.698,1.31,-3.007,0.459,0.83,1.034,0.068,0.736,0.214,-0.165,-1.124,-0.003
'0:00.387',-0.258,-3.136,-2.878,1.698,1.31,-3.008,0.462,0.837,1.042,0.073,0.74,0.216,-0.165,-1.127,-0.007
'0:00.388',-0.259,-3.137,-2.878,1.698,1.31,-3.008,0.464,0.844,1.047,0.076,0.743,0.218,-0.163,-1.129,-0.01
'0:00.389',-0.255,-3.135,-2.881,1.695,1.313,-3.009,0.467,0.849,1.052,0.082,0.748,0.223,-0.159,-1.129,-0.012
'0:00.390',-0.252,-3.134,-2.882,1.693,1.315,-3.009,0.468,0.855,1.058,0.087,0.749,0.222,-0.158,-1.129,-0.015
'0:00.391',-0.249,-3.131,-2.882,1.69,1.316,-3.007,0.474,0.864,1.065,0.095,0.752,0.224,-0.155,-1.127,-0.021
'0:00.392',-0.25,-3.133,-2.883,1.692,1.317,-3.009,0.473,0.87,1.071,0.102,0.758,0.226,-0.15,-1.128,-0.025
'0:00.393',-0.251,-3.131,-2.881,1.691,1.315,-3.006,0.472,0.876,1.077,0.11,0.763,0.228,-0.152,-1.127,-0.029
'0:00.394',-0.251,-3.128,-2.877,1.689,1.313,-3.003,0.476,0.885,1.087,0.118,0.769,0.234,-0.148,-1.125,-0.034
'0:00.395',-0.248,-3.125,-2.877,1.687,1.314,-3.001,0.478,0.893,1.094,0.122,0.77,0.233,-0.142,-1.125,-0.034
'0:00.396',-0.247,-3.123,-2.876,1.685,1.314,-2.999,0.482,0.899,1.097,0.125,0.769,0.232,-0.142,-1.123,-0.036
'0:00.397',-0.248,-3.12,-2.872,1.684,1.312,-2.997,0.485,0.906,1.103,0.129,0.773,0.234,-0.142,-1.121,-0.04
'0:00.398',-0.241,-3.115,-2.873,1.678,1.315,-2.994,0.488,0.914,1.115,0.137,0.777,0.237,-0.136,-1.119,-0.043
'0:00.399',-0.238,-3.111,-2.872,1.675,1.317,-2.991,0.49,0.92,1.121,0.141,0.779,0.239,-0.131,-1.115,-0.045
'0:00.400',-0.236,-3.107,-2.871,1.672,1.317,-2.99,0.492,0.926,1.127,0.144,0.781,0.24,-0.129,-1.111,-0.049
'0:00.401',-0.234,-3.103,-2.868,1.669,1.317,-2.986,0.496,0.935,1.133,0.15,0.785,0.242,-0.127,-1.105,-0.053
'0:00.402',-0.233,-3.098,-2.866,1.665,1.317,-2.982,0.496,0.943,1.141,0.156,0.789,0.243,-0.124,-1.105,-0.059
'0:00.403',-0.232,-3.099,-2.868,1.665,1.318,-2.983,0.497,0.95,1.149,0.161,0.79,0.243,-0.119,-1.113,-0.06
'0:00.404',-0.234,-3.099,-2.864,1.667,1.315,-2.982,0.502,0.958,1.155,0.165,0.791,0.244,-0.12,-1.111,-0.065
'0:00.405',-0.234,-3.094,-2.86,1.664,1.312,-2.977,0.505,0.967,1.164,0.171,0.795,0.245,-0.12,-1.101,-0.069
'0:00.406',-0.231,-3.089,-2.858,1.66,1.313,-2.974,0.509,0.973,1.171,0.175,0.797,0.246,-0.119,-1.1,-0.073
'0:00.407',-0.228,-3.084,-2.857,1.656,1.315,-2.971,0.512,0.981,1.181,0.184,0.803,0.248,-0.117,-1.099,-0.081
'0:00.408',-0.226,-3.084,-2.859,1.655,1.317,-2.973,0.512,0.989,1.189,0.191,0.807,0.251,-0.11,-1.102,-0.081
'0:00.409',-0.225,-3.083,-2.859,1.654,1.317,-2.971,0.513,0.995,1.194,0.195,0.81,0.253,-0.106,-1.1,-0.082
'0:00.410',-0.222,-3.079,-2.857,1.651,1.317,-2.969,0.517,1.005,1.204,0.203,0.816,0.257,-0.103,-1.093,-0.086
'0:00.411',-0.222,-3.078,-2.856,1.649,1.317,-2.967,0.52,1.014,1.211,0.207,0.819,0.258,-0.101,-1.092,-0.09
'0:00.412',-0.222,-3.075,-2.853,1.649,1.315,-2.965,0.526,1.022,1.22,0.215,0.825,0.259,-0.102,-1.089,-0.097
'0:00.413',-0.22,-3.075,-2.855,1.647,1.317,-2.965,0.528,1.033,1.23,0.224,0.83,0.264,-0.093,-1.09,-0.099
'0:00.414',-0.217,-3.073,-2.856,1.645,1.319,-2.965,0.531,1.042,1.24,0.232,0.833,0.265,-0.092,-1.091,-0.103
'0:00.415',-0.215,-3.072,-2.857,1.644,1.321,-2.965,0.535,1.05,1.252,0.241,0.838,0.269,-0.091,-1.087,-0.108
'0:00.416',-0.214,-3.073,-2.859,1.644,1.323,-2.966,0.539,1.059,1.258,0.246,0.843,0.274,-0.086,-1.086,-0.111
'0:00.417',-0.212,-3.071,-2.859,1.641,1.323,-2.966,0.543,1.069,1.268,0.257,0.848,0.275,-0.085,-1.085,-0.116
'0:00.418',-0.21,-3.071,-2.861,1.641,1.325,-2.966,0.545,1.077,1.28,0.265,0.853,0.277,-0.081,-1.085,-0.119
'0:00.419',-0.208,-3.07,-2.862,1.639,1.327,-2.966,0.549,1.086,1.288,0.272,0.858,0.281,-0.079,-1.085,-0.122
'0:00.420',-0.205,-3.069,-2.864,1.637,1.329,-2.966,0.553,1.095,1.296,0.28,0.862,0.284,-0.076,-1.087,-0.126
'0:00.421',-0.207,-3.071,-2.863,1.639,1.327,-2.967,0.554,1.103,1.305,0.284,0.867,0.287,-0.075,-1.089,-0.132
'0:00.422',-0.206,-3.07,-2.863,1.637,1.328,-2.966,0.556,1.111,1.314,0.293,0.873,0.291,-0.071,-1.085,-0.136
'0:00.423',-0.203,-3.067,-2.864,1.635,1.33,-2.966,0.558,1.12,1.323,0.3,0.877,0.293,-0.067,-1.079,-0.138
'0:00.424',-0.202,-3.065,-2.862,1.633,1.33,-2.964,0.561,1.125,1.329,0.306,0.878,0.292,-0.068,-1.079,-0.141
'0:00.425',-0.201,-3.064,-2.863,1.633,1.331,-2.964,0.565,1.133,1.337,0.312,0.879,0.294,-0.066,-1.08,-0.145
'0:00.426',-0.202,-3.064,-2.863,1.633,1.331,-2.964,0.568,1.142,1.347,0.323,0.886,0.297,-0.061,-1.08,-0.149
'0:00.427',-0.199,-3.062,-2.862,1.631,1.331,-2.962,0.569,1.147,1.355,0.33,0.89,0.297,-0.059,-1.08,-0.152
'0:00.428',-0.199,-3.061,-2.861,1.629,1.331,-2.961,0.571,1.156,1.365,0.34,0.896,0.301,-0.056,-1.077,-0.156
'0:00.429',-0.197,-3.058,-2.861,1.627,1.331,-2.959,0.573,1.164,1.375,0.35,0.903,0.305,-0.052,-1.075,-0.16
'0:00.430',-0.194,-3.054,-2.861,1.624,1.333,-2.958,0.577,1.169,1.379,0.35,0.905,0.308,-0.05,-1.075,-0.163
'0:00.431',-0.194,-3.054,-2.86,1.624,1.333,-2.957,0.576,1.175,1.384,0.353,0.907,0.31,-0.048,-1.073,-0.164
'0:00.432',-0.195,-3.054,-2.859,1.624,1.332,-2.957,0.577,1.18,1.391,0.36,0.911,0.311,-0.045,-1.074,-0.167
'0:00.433',-0.195,-3.054,-2.859,1.624,1.332,-2.957,0.579,1.185,1.397,0.364,0.913,0.313,-0.044,-1.075,-0.17
'0:00.434',-0.193,-3.055,-2.862,1.624,1.335,-2.959,0.577,1.19,1.403,0.367,0.916,0.315,-0.041,-1.075,-0.171
'0:00.435',-0.192,-3.054,-2.862,1.623,1.335,-2.959,0.578,1.194,1.409,0.373,0.92,0.319,-0.036,-1.073,-0.172
'0:00.436',-0.192,-3.054,-2.862,1.623,1.335,-2.958,0.581,1.2,1.415,0.382,0.924,0.322,-0.033,-1.073,-0.173
'0:00.437',-0.19,-3.053,-2.862,1.621,1.336,-2.958,0.58,1.206,1.422,0.388,0.928,0.322,-0.029,-1.071,-0.177
'0:00.438',-0.187,-3.049,-2.862,1.618,1.337,-2.956,0.581,1.209,1.427,0.391,0.93,0.325,-0.027,-1.069,-0.178
'0:00.439',-0.186,-3.046,-2.86,1.616,1.337,-2.953,0.583,1.215,1.434,0.396,0.934,0.329,-0.025,-1.069,-0.179
'0:00.440',-0.184,-3.043,-2.859,1.613,1.337,-2.951,0.584,1.222,1.444,0.403,0.939,0.331,-0.021,-1.068,-0.183
'0:00.441',-0.183,-3.045,-2.861,1.614,1.339,-2.953,0.583,1.221,1.442,0.403,0.94,0.333,-0.018,-1.07,-0.182
'0:00.442',-0.186,-3.046,-2.859,1.616,1.336,-2.953,0.581,1.222,1.444,0.404,0.941,0.332,-0.018,-1.069,-0.183
'0:00.443',-0.182,-3.04,-2.858,1.611,1.338,-2.95,0.582,1.228,1.452,0.413,0.947,0.338,-0.011,-1.062,-0.185
'0:00.444',-0.177,-3.037,-2.859,1.607,1.341,-2.948,0.582,1.234,1.46,0.419,0.952,0.343,-0.007,-1.062,-0.186
'0:00.445',-0.175,-3.036,-2.861,1.606,1.342,-2.949,0.582,1.234,1.462,0.422,0.955,0.344,-0.007,-1.062,-0.188
'0:00.446',-0.174,-3.034,-2.86,1.603,1.343,-2.947,0.582,1.235,1.465,0.426,0.958,0.344,-0.007,-1.056,-0.189
'0:00.447',-0.173,-3.031,-2.858,1.603,1.342,-2.945,0.582,1.238,1.468,0.428,0.959,0.347,-0.003,-1.062,-0.189
'0:00.448',-0.172,-3.032,-2.86,1.603,1.343,-2.946,0.578,1.238,1.47,0.429,0.961,0.349,0.002,-1.065,-0.186
'0:00.449',-0.17,-3.026,-2.857,1.599,1.343,-2.942,0.576,1.238,1.472,0.434,0.964,0.35,0.002,-1.056,-0.189
'0:00.450',-0.168,-3.024,-2.857,1.595,1.345,-2.941,0.577,1.242,1.477,0.438,0.969,0.354,0.003,-1.056,-0.188
'0:00.451',-0.169,-3.023,-2.854,1.596,1.343,-2.939,0.576,1.24,1.478,0.438,0.97,0.354,0.004,-1.056,-0.186
'0:00.452',-0.167,-3.019,-2.853,1.593,1.343,-2.937,0.574,1.24,1.48,0.441,0.974,0.357,0.009,-1.056,-0.186
'0:00.453',-0.166,-3.018,-2.853,1.592,1.343,-2.937,0.571,1.24,1.482,0.443,0.974,0.356,0.007,-1.054,-0.184
'0:00.454',-0.164,-3.018,-2.854,1.591,1.345,-2.937,0.57,1.238,1.482,0.444,0.974,0.355,0.006,-1.052,-0.183
'0:00.455',-0.167,-3.019,-2.853,1.593,1.343,-2.937,0.569,1.237,1.484,0.445,0.977,0.358,0.006,-1.052,-0.184
'0:00.456',-0.167,-3.02,-2.853,1.593,1.343,-2.937,0.562,1.232,1.482,0.444,0.976,0.357,0.007,-1.052,-0.181
'0:00.457',-0.164,-3.018,-2.855,1.591,1.345,-2.937,0.558,1.23,1.484,0.446,0.978,0.36,0.013,-1.052,-0.179
'0:00.458',-0.162,-3.016,-2.854,1.589,1.347,-2.936,0.557,1.228,1.484,0.447,0.979,0.361,0.015,-1.052,-0.177
'0:00.459',-0.16,-3.017,-2.857,1.588,1.349,-2.937,0.556,1.224,1.482,0.45,0.981,0.362,0.013,-1.052,-0.176
'0:00.460',-0.159,-3.018,-2.86,1.588,1.351,-2.938,0.553,1.22,1.483,0.451,0.985,0.364,0.011,-1.057,-0.176
'0:00.461',-0.153,-3.016,-2.863,1.585,1.355,-2.94,0.547,1.216,1.48,0.451,0.985,0.366,0.015,-1.056,-0.171
'0:00.462',-0.15,-3.017,-2.866,1.584,1.357,-2.942,0.543,1.21,1.478,0.451,0.985,0.368,0.018,-1.053,-0.166
'0:00.463',-0.147,-3.017,-2.869,1.582,1.361,-2.942,0.539,1.204,1.476,0.448,0.986,0.368,0.021,-1.056,-0.163
'0:00.464',-0.148,-3.017,-2.868,1.583,1.359,-2.942,0.532,1.197,1.471,0.445,0.986,0.37,0.023,-1.054,-0.158
'0:00.465',-0.152,-3.018,-2.865,1.585,1.356,-2.942,0.527,1.19,1.467,0.445,0.985,0.368,0.018,-1.051,-0.154
'0:00.466',-0.15,-3.018,-2.869,1.585,1.359,-2.943,0.522,1.181,1.46,0.442,0.985,0.369,0.021,-1.054,-0.149
'0:00.467',-0.151,-3.021,-2.869,1.586,1.359,-2.946,0.515,1.171,1.453,0.438,0.983,0.37,0.021,-1.055,-0.144
'0:00.468',-0.152,-3.019,-2.867,1.585,1.357,-2.943,0.51,1.163,1.446,0.434,0.98,0.37,0.019,-1.058,-0.141
'0:00.469',-0.149,-3.02,-2.87,1.585,1.36,-2.946,0.503,1.153,1.44,0.431,0.98,0.371,0.022,-1.054,-0.135
'0:00.470',-0.15,-3.021,-2.87,1.585,1.36,-2.946,0.495,1.141,1.429,0.425,0.976,0.37,0.022,-1.053,-0.129
'0:00.471',-0.152,-3.021,-2.869,1.587,1.358,-2.945,0.49,1.13,1.421,0.419,0.974,0.369,0.019,-1.056,-0.125
'0:00.472',-0.153,-3.022,-2.869,1.587,1.357,-2.946,0.482,1.117,1.412,0.415,0.972,0.368,0.017,-1.056,-0.12
'0:00.473',-0.154,-3.022,-2.868,1.588,1.356,-2.945,0.475,1.102,1.399,0.407,0.968,0.365,0.014,-1.058,-0.115
'0:00.474',-0.154,-3.022,-2.867,1.589,1.356,-2.945,0.47,1.089,1.386,0.401,0.966,0.365,0.015,-1.06,-0.108
'0:00.475',-0.155,-3.021,-2.865,1.587,1.355,-2.943,0.464,1.075,1.373,0.392,0.962,0.364,0.013,-1.054,-0.1
'0:00.476',-0.156,-3.022,-2.865,1.589,1.355,-2.944,0.456,1.058,1.359,0.383,0.958,0.362,0.01,-1.054,-0.094
'0:00.477',-0.16,-3.024,-2.864,1.592,1.351,-2.944,0.449,1.042,1.343,0.37,0.952,0.359,0.006,-1.056,-0.086
'0:00.478',-0.162,-3.024,-2.862,1.593,1.35,-2.943,0.444,1.026,1.329,0.361,0.947,0.356,0.004,-1.058,-0.08
'0:00.479',-0.162,-3.025,-2.863,1.593,1.35,-2.944,0.436,1.012,1.315,0.352,0.943,0.356,0.003,-1.059,-0.072
'0:00.480',-0.165,-3.026,-2.861,1.595,1.348,-2.943,0.426,0.995,1.298,0.341,0.936,0.351,-0.001,-1.056,-0.063
'0:00.481',-0.166,-3.029,-2.864,1.597,1.349,-2.946,0.42,0.979,1.281,0.331,0.929,0.348,-0.006,-1.058,-0.056
'0:00.482',-0.167,-3.03,-2.864,1.599,1.348,-2.947,0.414,0.962,1.265,0.318,0.923,0.345,-0.013,-1.06,-0.048
'0:00.483',-0.169,-3.033,-2.864,1.601,1.347,-2.949,0.407,0.946,1.249,0.306,0.917,0.343,-0.016,-1.062,-0.04
'0:00.484',-0.173,-3.035,-2.862,1.605,1.344,-2.95,0.401,0.93,1.231,0.292,0.91,0.341,-0.018,-1.063,-0.032
'0:00.485',-0.177,-3.038,-2.861,1.608,1.341,-2.95,0.395,0.914,1.214,0.279,0.903,0.338,-0.022,-1.066,-0.021
'0:00.486',-0.178,-3.042,-2.863,1.611,1.342,-2.953,0.389,0.897,1.196,0.265,0.896,0.335,-0.026,-1.071,-0.013
'0:00.487',-0.182,-3.044,-2.862,1.613,1.339,-2.953,0.381,0.879,1.177,0.25,0.887,0.33,-0.033,-1.072,-0.006
'0:00.488',-0.186,-3.049,-2.862,1.617,1.337,-2.955,0.374,0.862,1.157,0.235,0.88,0.326,-0.041,-1.073,0.002
'0:00.489',-0.19,-3.051,-2.862,1.621,1.336,-2.957,0.373,0.846,1.141,0.223,0.872,0.322,-0.045,-1.073,0.008
'0:00.490',-0.192,-3.054,-2.862,1.623,1.335,-2.958,0.367,0.833,1.125,0.211,0.865,0.319,-0.047,-1.078,0.016
'0:00.491',-0.195,-3.055,-2.86,1.625,1.333,-2.958,0.361,0.818,1.109,0.198,0.858,0.316,-0.053,-1.081,0.024
'0:00.492',-0.194,-3.057,-2.862,1.625,1.333,-2.959,0.355,0.8,1.091,0.182,0.849,0.312,-0.058,-1.081,0.029
'0:00.493',-0.198,-3.059,-2.861,1.628,1.331,-2.961,0.348,0.784,1.073,0.168,0.841,0.308,-0.06,-1.081,0.037
'0:00.494',-0.203,-3.063,-2.86,1.633,1.328,-2.962,0.343,0.769,1.058,0.155,0.834,0.303,-0.067,-1.084,0.044
'0:00.495',-0.207,-3.068,-2.861,1.637,1.327,-2.965,0.338,0.752,1.04,0.14,0.822,0.298,-0.074,-1.085,0.05
'0:00.496',-0.212,-3.072,-2.86,1.642,1.323,-2.966,0.333,0.737,1.023,0.126,0.815,0.293,-0.079,-1.09,0.058
'0:00.497',-0.212,-3.072,-2.86,1.643,1.323,-2.966,0.329,0.723,1.006,0.115,0.809,0.289,-0.084,-1.093,0.065
'0:00.498',-0.211,-3.072,-2.861,1.641,1.324,-2.966,0.327,0.709,0.991,0.101,0.801,0.287,-0.087,-1.091,0.071
'0:00.499',-0.212,-3.074,-2.861,1.643,1.324,-2.967,0.323,0.697,0.977,0.088,0.792,0.283,-0.091,-1.092,0.079
'0:00.500',-0.218,-3.078,-2.86,1.648,1.321,-2.969,0.319,0.681,0.961,0.072,0.781,0.277,-0.102,-1.095,0.085
'0:00.501',-0.223,-3.079,-2.857,1.651,1.317,-2.968,0.313,0.667,0.943,0.059,0.772,0.271,-0.108,-1.095,0.091
'0:00.502',-0.224,-3.079,-2.856,1.651,1.315,-2.968,0.308,0.654,0.927,0.045,0.762,0.266,-0.111,-1.095,0.1
'0:00.503',-0.228,-3.083,-2.855,1.655,1.313,-2.969,0.306,0.639,0.912,0.032,0.753,0.262,-0.117,-1.097,0.106
'0:00.504',-0.228,-3.084,-2.857,1.656,1.314,-2.97,0.3,0.627,0.898,0.021,0.746,0.258,-0.123,-1.097,0.114
'0:00.505',-0.233,-3.088,-2.856,1.661,1.311,-2.972,0.298,0.615,0.886,0.009,0.739,0.253,-0.129,-1.097,0.119
'0:00.506',-0.241,-3.092,-2.851,1.667,1.304,-2.971,0.294,0.602,0.871,-0.004,0.729,0.246,-0.135,-1.103,0.126
'0:00.507',-0.244,-3.095,-2.85,1.669,1.302,-2.973,0.292,0.591,0.857,-0.016,0.721,0.24,-0.14,-1.107,0.13
'0:00.508',-0.248,-3.099,-2.851,1.674,1.301,-2.975,0.291,0.583,0.847,-0.025,0.715,0.236,-0.145,-1.108,0.134
'0:00.509',-0.252,-3.102,-2.85,1.677,1.299,-2.976,0.287,0.572,0.834,-0.036,0.707,0.232,-0.151,-1.109,0.139
'0:00.510',-0.253,-3.103,-2.85,1.678,1.298,-2.977,0.285,0.559,0.822,-0.047,0.701,0.229,-0.156,-1.108,0.144
'0:00.511',-0.255,-3.108,-2.854,1.681,1.3,-2.982,0.282,0.549,0.812,-0.056,0.695,0.226,-0.158,-1.113,0.15
'0:00.512',-0.259,-3.112,-2.854,1.686,1.297,-2.983,0.28,0.541,0.8,-0.066,0.689,0.222,-0.164,-1.118,0.153
'0:00.513',-0.262,-3.116,-2.854,1.689,1.296,-2.986,0.277,0.532,0.788,-0.076,0.682,0.217,-0.17,-1.122,0.158
'0:00.514',-0.262,-3.119,-2.857,1.691,1.298,-2.989,0.275,0.522,0.779,-0.086,0.676,0.213,-0.172,-1.122,0.164
'0:00.515',-0.267,-3.123,-2.856,1.694,1.294,-2.99,0.275,0.515,0.771,-0.094,0.671,0.211,-0.177,-1.121,0.165
'0:00.516',-0.272,-3.126,-2.855,1.699,1.292,-2.99,0.274,0.508,0.763,-0.101,0.666,0.208,-0.178,-1.127,0.171
'0:00.517',-0.275,-3.128,-2.853,1.702,1.289,-2.991,0.271,0.5,0.751,-0.11,0.659,0.204,-0.182,-1.128,0.174
'0:00.518',-0.278,-3.13,-2.853,1.704,1.288,-2.991,0.269,0.492,0.741,-0.12,0.652,0.199,-0.188,-1.125,0.177
'0:00.519',-0.281,-3.132,-2.85,1.707,1.284,-2.991,0.27,0.484,0.733,-0.129,0.647,0.195,-0.192,-1.122,0.18
'0:00.520',-0.282,-3.135,-2.853,1.709,1.285,-2.994,0.269,0.478,0.726,-0.135,0.644,0.193,-0.194,-1.125,0.182
'0:00.521',-0.286,-3.138,-2.852,1.712,1.283,-2.995,0.265,0.471,0.718,-0.141,0.638,0.188,-0.2,-1.131,0.184
'0:00.522',-0.289,-3.139,-2.85,1.714,1.28,-2.994,0.267,0.467,0.712,-0.144,0.634,0.185,-0.206,-1.132,0.186
'0:00.523',-0.288,-3.141,-2.853,1.714,1.282,-2.997,0.267,0.46,0.704,-0.152,0.63,0.183,-0.207,-1.134,0.192
'0:00.524',-0.288,-3.141,-2.853,1.714,1.282,-2.997,0.265,0.454,0.696,-0.164,0.624,0.18,-0.21,-1.136,0.194
'0:00.525',-0.287,-3.143,-2.856,1.716,1.284,-2.999,0.265,0.449,0.688,-0.168,0.621,0.179,-0.213,-1.135,0.196
'0:00.526',-0.289,-3.146,-2.857,1.717,1.284,-3.002,0.264,0.444,0.684,-0.172,0.618,0.175,-0.217,-1.135,0.198
'0:00.527',-0.29,-3.147,-2.857,1.718,1.282,-3.002,0.267,0.444,0.683,-0.173,0.618,0.172,-0.221,-1.137,0.197
'0:00.528',-0.294,-3.151,-2.857,1.722,1.282,-3.005,0.266,0.443,0.678,-0.179,0.613,0.171,-0.226,-1.139,0.199
'0:00.529',-0.295,-3.151,-2.857,1.724,1.28,-3.005,0.267,0.439,0.674,-0.184,0.609,0.17,-0.233,-1.142,0.198
'0:00.530',-0.294,-3.153,-2.859,1.724,1.282,-3.006,0.265,0.433,0.667,-0.19,0.605,0.166,-0.234,-1.149,0.2
'0:00.531',-0.298,-3.159,-2.86,1.728,1.28,-3.01,0.263,0.428,0.662,-0.196,0.6,0.161,-0.235,-1.151,0.205
'0:00.532',-0.301,-3.159,-2.858,1.73,1.278,-3.009,0.267,0.427,0.658,-0.2,0.597,0.159,-0.24,-1.149,0.205
'0:00.533',-0.3,-3.159,-2.858,1.73,1.278,-3.009,0.267,0.426,0.657,-0.202,0.596,0.159,-0.24,-1.149,0.205
'0:00.534',-0.302,-3.16,-2.858,1.731,1.278,-3.01,0.266,0.423,0.653,-0.205,0.593,0.157,-0.242,-1.148,0.206
'0:00.535',-0.304,-3.163,-2.86,1.734,1.278,-3.012,0.266,0.418,0.647,-0.21,0.59,0.153,-0.246,-1.15,0.208
'0:00.536',-0.305,-3.166,-2.861,1.735,1.278,-3.014,0.264,0.417,0.644,-0.212,0.588,0.152,-0.247,-1.152,0.208
'0:00.537',-0.306,-3.167,-2.861,1.737,1.278,-3.014,0.264,0.414,0.641,-0.217,0.584,0.148,-0.251,-1.155,0.209
'0:00.538',-0.306,-3.167,-2.861,1.736,1.277,-3.014,0.264,0.411,0.639,-0.218,0.584,0.147,-0.254,-1.154,0.207
'0:00.539',-0.307,-3.17,-2.862,1.738,1.277,-3.016,0.263,0.41,0.638,-0.218,0.583,0.147,-0.255,-1.153,0.208
'0:00.540',-0.31,-3.175,-2.865,1.743,1.276,-3.02,0.263,0.41,0.637,-0.221,0.58,0.147,-0.255,-1.157,0.21
'0:00.541',-0.314,-3.178,-2.864,1.746,1.275,-3.021,0.261,0.409,0.635,-0.223,0.578,0.147,-0.252,-1.159,0.211
'0:00.542',-0.313,-3.184,-2.872,1.749,1.279,-3.029,0.263,0.41,0.635,-0.223,0.578,0.147,-0.255,-1.166,0.212
'0:00.543',-0.311,-3.19,-2.878,1.75,1.284,-3.034,0.267,0.413,0.636,-0.218,0.583,0.151,-0.257,-1.174,0.209
'0:00.544',-0.316,-3.192,-2.877,1.754,1.28,-3.035,0.268,0.411,0.634,-0.218,0.582,0.151,-0.259,-1.172,0.209
'0:00.545',-0.317,-3.193,-2.877,1.755,1.28,-3.035,0.269,0.41,0.633,-0.219,0.579,0.149,-0.26,-1.167,0.209
'0:00.546',-0.316,-3.193,-2.877,1.754,1.28,-3.036,0.269,0.409,0.633,-0.216,0.579,0.151,-0.258,-1.169,0.209
'0:00.547',-0.318,-3.195,-2.877,1.756,1.279,-3.036,0.27,0.411,0.633,-0.214,0.579,0.15,-0.261,-1.169,0.208
'0:00.548',-0.316,-3.196,-2.879,1.756,1.282,-3.038,0.27,0.412,0.633,-0.213,0.579,0.151,-0.258,-1.173,0.208
'0:00.549',-0.315,-3.197,-2.883,1.756,1.284,-3.041,0.271,0.411,0.633,-0.212,0.579,0.151,-0.26,-1.175,0.207
'0:00.550',-0.319,-3.196,-2.877,1.758,1.279,-3.037,0.272,0.409,0.631,-0.213,0.577,0.15,-0.26,-1.17,0.207
'0:00.551',-0.321,-3.182,-2.861,1.751,1.27,-3.022,0.266,0.404,0.625,-0.217,0.57,0.145,-0.259,-1.162,0.206
'0:00.552',-0.322,-3.167,-2.846,1.744,1.262,-3.007,0.261,0.4,0.619,-0.224,0.562,0.137,-0.264,-1.157,0.206
'0:00.553',-0.324,-3.171,-2.848,1.748,1.262,-3.01,0.261,0.396,0.618,-0.225,0.562,0.136,-0.262,-1.157,0.208
'0:00.554',-0.323,-3.175,-2.852,1.749,1.264,-3.014,0.262,0.397,0.618,-0.223,0.563,0.139,-0.261,-1.157,0.207
'0:00.555',-0.32,-3.174,-2.854,1.747,1.267,-3.014,0.264,0.399,0.619,-0.223,0.562,0.137,-0.264,-1.159,0.207
'0:00.556',-0.322,-3.172,-2.85,1.747,1.264,-3.011,0.265,0.399,0.619,-0.223,0.561,0.135,-0.265,-1.155,0.206
'0:00.557',-0.325,-3.166,-2.841,1.745,1.258,-3.003,0.262,0.396,0.615,-0.225,0.557,0.133,-0.265,-1.149,0.207
'0:00.558',-0.326,-3.168,-2.842,1.746,1.258,-3.006,0.261,0.396,0.612,-0.225,0.556,0.133,-0.265,-1.152,0.207
'0:00.559',-0.328,-3.167,-2.838,1.748,1.255,-3.003,0.261,0.397,0.612,-0.225,0.556,0.132,-0.267,-1.151,0.206
'0:00.560',-0.329,-3.171,-2.842,1.75,1.256,-3.007,0.263,0.397,0.613,-0.225,0.555,0.131,-0.269,-1.154,0.205
'0:00.561',-0.331,-3.188,-2.857,1.759,1.264,-3.023,0.267,0.401,0.615,-0.22,0.56,0.136,-0.269,-1.166,0.204
'0:00.562',-0.328,-3.187,-2.858,1.758,1.264,-3.022,0.268,0.4,0.611,-0.222,0.557,0.135,-0.27,-1.164,0.205
'0:00.563',-0.328,-3.182,-2.853,1.755,1.262,-3.018,0.268,0.398,0.61,-0.222,0.556,0.133,-0.271,-1.159,0.202
'0:00.564',-0.329,-3.181,-2.852,1.754,1.262,-3.017,0.267,0.396,0.609,-0.225,0.554,0.131,-0.271,-1.159,0.203
'0:00.565',-0.324,-3.179,-2.854,1.752,1.265,-3.017,0.266,0.396,0.607,-0.229,0.553,0.129,-0.271,-1.16,0.203
'0:00.566',-0.326,-3.179,-2.853,1.752,1.264,-3.017,0.269,0.399,0.609,-0.227,0.557,0.133,-0.272,-1.161,0.201
'0:00.567',-0.328,-3.18,-2.853,1.754,1.262,-3.017,0.271,0.398,0.607,-0.229,0.554,0.132,-0.272,-1.161,0.202
'0:00.568',-0.329,-3.183,-2.853,1.756,1.262,-3.018,0.27,0.397,0.606,-0.233,0.552,0.13,-0.275,-1.162,0.202
'0:00.569',-0.33,-3.183,-2.853,1.756,1.262,-3.018,0.27,0.399,0.608,-0.232,0.552,0.131,-0.276,-1.159,0.2
'0:00.570',-0.332,-3.183,-2.851,1.757,1.26,-3.017,0.274,0.401,0.612,-0.229,0.555,0.132,-0.273,-1.156,0.199
'0:00.571',-0.33,-3.183,-2.854,1.756,1.262,-3.018,0.274,0.399,0.609,-0.234,0.553,0.13,-0.275,-1.159,0.201
'0:00.572',-0.328,-3.184,-2.857,1.756,1.264,-3.021,0.272,0.396,0.605,-0.235,0.551,0.13,-0.274,-1.164,0.202
'0:00.573',-0.327,-3.184,-2.857,1.756,1.264,-3.021,0.273,0.399,0.609,-0.232,0.553,0.133,-0.271,-1.164,0.202
'0:00.574',-0.328,-3.183,-2.856,1.756,1.264,-3.019,0.278,0.4,0.61,-0.231,0.552,0.132,-0.274,-1.161,0.2
'0:00.575',-0.329,-3.184,-2.855,1.756,1.263,-3.019,0.278,0.399,0.609,-0.233,0.552,0.132,-0.278,-1.161,0.199
'0:00.576',-0.328,-3.183,-2.856,1.756,1.264,-3.02,0.276,0.399,0.608,-0.235,0.552,0.129,-0.275,-1.163,0.201
'0:00.577',-0.327,-3.183,-2.857,1.754,1.265,-3.02,0.275,0.398,0.609,-0.233,0.552,0.128,-0.274,-1.165,0.199
'0:00.578',-0.326,-3.183,-2.857,1.754,1.265,-3.02,0.274,0.399,0.609,-0.235,0.552,0.129,-0.275,-1.163,0.2
'0:00.579',-0.327,-3.184,-2.857,1.756,1.265,-3.021,0.275,0.399,0.605,-0.237,0.547,0.128,-0.276,-1.159,0.2
'0:00.580',-0.326,-3.184,-2.858,1.754,1.266,-3.022,0.275,0.398,0.607,-0.238,0.547,0.126,-0.277,-1.159,0.198
'0:00.581',-0.325,-3.183,-2.859,1.754,1.267,-3.022,0.273,0.398,0.608,-0.238,0.548,0.125,-0.277,-1.159,0.199
'0:00.582',-0.324,-3.183,-2.859,1.754,1.268,-3.022,0.273,0.397,0.607,-0.237,0.548,0.125,-0.276,-1.162,0.2
'0:00.583',-0.325,-3.183,-2.859,1.754,1.267,-3.022,0.275,0.399,0.609,-0.238,0.549,0.126,-0.275,-1.162,0.201
'0:00.584',-0.325,-3.186,-2.861,1.755,1.268,-3.023,0.274,0.399,0.608,-0.238,0.549,0.129,-0.274,-1.165,0.202
'0:00.585',-0.325,-3.188,-2.863,1.756,1.269,-3.026,0.273,0.398,0.607,-0.239,0.547,0.129,-0.275,-1.167,0.202
'0:00.586',-0.325,-3.189,-2.865,1.758,1.27,-3.027,0.272,0.397,0.605,-0.24,0.546,0.127,-0.276,-1.171,0.204
'0:00.587',-0.328,-3.191,-2.862,1.76,1.266,-3.026,0.276,0.403,0.611,-0.235,0.55,0.127,-0.274,-1.173,0.203
'0:00.588',-0.326,-3.19,-2.864,1.758,1.268,-3.027,0.281,0.405,0.612,-0.234,0.551,0.13,-0.274,-1.169,0.202
'0:00.589',-0.325,-3.19,-2.866,1.757,1.27,-3.028,0.281,0.401,0.607,-0.238,0.55,0.13,-0.275,-1.169,0.203
'0:00.590',-0.327,-3.191,-2.864,1.758,1.268,-3.027,0.281,0.404,0.61,-0.235,0.553,0.131,-0.275,-1.167,0.202
'0:00.591',-0.324,-3.188,-2.864,1.756,1.27,-3.026,0.281,0.407,0.613,-0.233,0.555,0.136,-0.272,-1.169,0.202
'0:00.592',-0.326,-3.184,-2.859,1.755,1.266,-3.022,0.281,0.406,0.613,-0.233,0.556,0.138,-0.271,-1.169,0.201
'0:00.593',-0.328,-3.186,-2.858,1.756,1.265,-3.022,0.281,0.405,0.612,-0.235,0.556,0.135,-0.273,-1.167,0.201
'0:00.594',-0.325,-3.186,-2.861,1.755,1.268,-3.023,0.283,0.408,0.614,-0.234,0.558,0.138,-0.271,-1.171,0.202
'0:00.595',-0.322,-3.188,-2.866,1.754,1.272,-3.027,0.284,0.409,0.617,-0.231,0.56,0.141,-0.269,-1.174,0.2
'0:00.596',-0.321,-3.191,-2.87,1.756,1.275,-3.031,0.283,0.407,0.616,-0.23,0.561,0.141,-0.269,-1.175,0.2
'0:00.597',-0.319,-3.191,-2.872,1.755,1.276,-3.031,0.284,0.408,0.615,-0.23,0.561,0.143,-0.269,-1.172,0.2
'0:00.598',-0.319,-3.19,-2.871,1.754,1.276,-3.031,0.282,0.408,0.615,-0.23,0.56,0.143,-0.268,-1.173,0.2
'0:00.599',-0.318,-3.191,-2.873,1.754,1.277,-3.032,0.283,0.408,0.616,-0.229,0.562,0.143,-0.265,-1.175,0.201
'0:00.600',-0.319,-3.193,-2.875,1.756,1.278,-3.034,0.284,0.409,0.617,-0.23,0.565,0.146,-0.266,-1.177,0.2
'0:00.601',-0.32,-3.192,-2.873,1.756,1.276,-3.033,0.282,0.408,0.617,-0.229,0.565,0.145,-0.266,-1.176,0.199
'0:00.602',-0.32,-3.193,-2.873,1.756,1.276,-3.034,0.282,0.406,0.615,-0.231,0.561,0.144,-0.267,-1.178,0.2
'0:00.603',-0.323,-3.199,-2.876,1.76,1.276,-3.038,0.281,0.406,0.613,-0.233,0.56,0.143,-0.268,-1.183,0.199
'0:00.604',-0.325,-3.199,-2.874,1.762,1.274,-3.037,0.282,0.41,0.615,-0.229,0.565,0.144,-0.266,-1.175,0.197
'0:00.605',-0.323,-3.2,-2.877,1.762,1.276,-3.038,0.282,0.409,0.616,-0.228,0.565,0.145,-0.265,-1.173,0.196
'0:00.606',-0.318,-3.197,-2.878,1.758,1.28,-3.038,0.283,0.409,0.616,-0.229,0.565,0.145,-0.266,-1.169,0.196
'0:00.607',-0.316,-3.192,-2.877,1.754,1.28,-3.035,0.284,0.409,0.616,-0.228,0.564,0.145,-0.267,-1.171,0.196
'0:00.608',-0.319,-3.195,-2.876,1.757,1.278,-3.035,0.283,0.407,0.614,-0.229,0.561,0.143,-0.269,-1.176,0.197
'0:00.609',-0.32,-3.193,-2.873,1.756,1.276,-3.034,0.281,0.407,0.612,-0.231,0.561,0.143,-0.268,-1.169,0.198
'0:00.610',-0.318,-3.188,-2.871,1.753,1.276,-3.03,0.28,0.407,0.612,-0.23,0.561,0.143,-0.267,-1.165,0.196
'0:00.611',-0.319,-3.188,-2.869,1.753,1.274,-3.028,0.28,0.406,0.61,-0.231,0.559,0.141,-0.269,-1.163,0.196
'0:00.612',-0.321,-3.19,-2.869,1.755,1.274,-3.03,0.279,0.405,0.61,-0.235,0.558,0.141,-0.267,-1.165,0.2
'0:00.613',-0.32,-3.189,-2.87,1.754,1.275,-3.03,0.279,0.406,0.612,-0.233,0.559,0.143,-0.267,-1.171,0.198
'0:00.614',-0.32,-3.185,-2.865,1.752,1.272,-3.026,0.28,0.405,0.612,-0.232,0.559,0.143,-0.27,-1.167,0.195
'0:00.615',-0.319,-3.186,-2.867,1.752,1.274,-3.026,0.281,0.407,0.614,-0.233,0.559,0.144,-0.271,-1.165,0.197
'0:00.616',-0.317,-3.183,-2.867,1.75,1.275,-3.026,0.281,0.407,0.615,-0.232,0.56,0.143,-0.266,-1.167,0.199
'0:00.617',-0.315,-3.18,-2.865,1.747,1.275,-3.022,0.281,0.407,0.614,-0.233,0.56,0.144,-0.266,-1.165,0.198
'0:00.618',-0.317,-3.181,-2.865,1.749,1.274,-3.023,0.281,0.407,0.613,-0.233,0.56,0.144,-0.27,-1.167,0.197
'0:00.619',-0.317,-3.179,-2.862,1.748,1.272,-3.021,0.281,0.406,0.612,-0.231,0.561,0.145,-0.268,-1.166,0.197
'0:00.620',-0.316,-3.18,-2.865,1.748,1.274,-3.023,0.282,0.407,0.613,-0.232,0.561,0.145,-0.267,-1.166,0.198
'0:00.621',-0.317,-3.182,-2.865,1.749,1.274,-3.023,0.283,0.406,0.612,-0.231,0.561,0.146,-0.266,-1.167,0.197
'0:00.622',-0.316,-3.181,-2.865,1.748,1.275,-3.023,0.283,0.406,0.612,-0.232,0.562,0.146,-0.265,-1.167,0.197
'0:00.623',-0.315,-3.181,-2.866,1.748,1.276,-3.024,0.282,0.404,0.612,-0.234,0.561,0.146,-0.265,-1.167,0.197
'0:00.624',-0.317,-3.182,-2.865,1.749,1.274,-3.023,0.283,0.405,0.611,-0.234,0.562,0.147,-0.267,-1.165,0.197
'0:00.625',-0.316,-3.182,-2.866,1.748,1.275,-3.024,0.284,0.406,0.612,-0.235,0.563,0.147,-0.267,-1.167,0.198
'0:00.626',-0.314,-3.179,-2.865,1.746,1.275,-3.022,0.283,0.406,0.612,-0.232,0.566,0.149,-0.264,-1.167,0.196
'0:00.627',-0.317,-3.182,-2.865,1.749,1.274,-3.023,0.284,0.406,0.613,-0.23,0.57,0.15,-0.263,-1.167,0.196
'0:00.628',-0.317,-3.184,-2.868,1.75,1.275,-3.026,0.282,0.405,0.611,-0.232,0.568,0.149,-0.263,-1.169,0.198
'0:00.629',-0.316,-3.183,-2.868,1.749,1.276,-3.026,0.281,0.405,0.61,-0.231,0.567,0.149,-0.264,-1.167,0.197
'0:00.630',-0.312,-3.183,-2.87,1.748,1.278,-3.026,0.281,0.404,0.609,-0.232,0.568,0.15,-0.263,-1.164,0.198
'0:00.631',-0.311,-3.183,-2.872,1.748,1.28,-3.027,0.281,0.404,0.609,-0.23,0.568,0.148,-0.262,-1.167,0.198
'0:00.632',-0.312,-3.183,-2.871,1.748,1.279,-3.027,0.282,0.404,0.61,-0.227,0.569,0.147,-0.264,-1.169,0.195
'0:00.633',-0.31,-3.182,-2.871,1.746,1.28,-3.026,0.281,0.404,0.61,-0.227,0.571,0.15,-0.261,-1.167,0.196
'0:00.634',-0.311,-3.183,-2.872,1.747,1.28,-3.028,0.28,0.404,0.61,-0.227,0.572,0.151,-0.26,-1.167,0.198
'0:00.635',-0.312,-3.186,-2.873,1.749,1.28,-3.03,0.279,0.402,0.607,-0.23,0.569,0.15,-0.262,-1.168,0.197
'0:00.636',-0.313,-3.186,-2.873,1.75,1.28,-3.03,0.28,0.403,0.607,-0.23,0.57,0.149,-0.261,-1.169,0.197
'0:00.637',-0.312,-3.187,-2.874,1.75,1.28,-3.03,0.281,0.404,0.607,-0.228,0.569,0.149,-0.263,-1.171,0.196
'0:00.638',-0.311,-3.183,-2.873,1.748,1.28,-3.029,0.28,0.401,0.604,-0.233,0.568,0.149,-0.263,-1.171,0.196
'0:00.639',-0.311,-3.182,-2.871,1.746,1.28,-3.026,0.279,0.4,0.603,-0.234,0.566,0.147,-0.264,-1.167,0.196
'0:00.640',-0.309,-3.182,-2.873,1.745,1.282,-3.027,0.28,0.4,0.603,-0.234,0.566,0.147,-0.266,-1.165,0.196
'0:00.641',-0.309,-3.179,-2.87,1.744,1.28,-3.026,0.279,0.401,0.604,-0.235,0.565,0.145,-0.267,-1.165,0.197
'0:00.642',-0.312,-3.179,-2.868,1.746,1.278,-3.023,0.277,0.4,0.603,-0.234,0.565,0.144,-0.267,-1.164,0.197
'0:00.643',-0.31,-3.179,-2.869,1.744,1.279,-3.024,0.277,0.395,0.601,-0.236,0.563,0.144,-0.266,-1.165,0.199
'0:00.644',-0.31,-3.179,-2.869,1.745,1.28,-3.025,0.275,0.394,0.598,-0.24,0.561,0.144,-0.266,-1.167,0.2
'0:00.645',-0.309,-3.18,-2.87,1.744,1.28,-3.026,0.277,0.396,0.599,-0.24,0.564,0.144,-0.267,-1.165,0.199
'0:00.646',-0.311,-3.179,-2.869,1.745,1.278,-3.024,0.278,0.396,0.598,-0.24,0.563,0.145,-0.268,-1.166,0.199
'0:00.647',-0.313,-3.182,-2.869,1.748,1.278,-3.026,0.277,0.395,0.596,-0.244,0.561,0.143,-0.268,-1.168,0.201
'0:00.648',-0.312,-3.18,-2.868,1.746,1.278,-3.025,0.276,0.394,0.596,-0.243,0.562,0.143,-0.269,-1.167,0.201
'0:00.649',-0.31,-3.179,-2.869,1.745,1.278,-3.025,0.275,0.394,0.596,-0.243,0.564,0.144,-0.268,-1.169,0.2
'0:00.650',-0.312,-3.182,-2.869,1.748,1.278,-3.026,0.273,0.393,0.596,-0.243,0.562,0.144,-0.266,-1.169,0.202
'0:00.651',-0.314,-3.18,-2.867,1.747,1.276,-3.024,0.272,0.392,0.595,-0.243,0.561,0.143,-0.268,-1.161,0.202
'0:00.652',-0.312,-3.179,-2.868,1.746,1.278,-3.023,0.273,0.391,0.595,-0.243,0.56,0.142,-0.27,-1.16,0.203
'0:00.653',-0.314,-3.18,-2.866,1.747,1.276,-3.023,0.27,0.39,0.594,-0.242,0.56,0.142,-0.266,-1.163,0.205
'0:00.654',-0.315,-3.18,-2.865,1.747,1.276,-3.023,0.267,0.388,0.592,-0.244,0.56,0.141,-0.265,-1.162,0.205
'0:00.655',-0.312,-3.179,-2.867,1.746,1.277,-3.023,0.268,0.387,0.593,-0.244,0.559,0.141,-0.268,-1.161,0.204
'0:00.656',-0.315,-3.179,-2.865,1.747,1.275,-3.022,0.269,0.386,0.591,-0.246,0.559,0.142,-0.267,-1.159,0.206
'0:00.657',-0.317,-3.18,-2.863,1.748,1.273,-3.022,0.267,0.385,0.59,-0.247,0.56,0.142,-0.266,-1.163,0.208
'0:00.658',-0.314,-3.176,-2.862,1.745,1.274,-3.019,0.265,0.386,0.589,-0.247,0.558,0.141,-0.266,-1.159,0.208
'0:00.659',-0.312,-3.179,-2.866,1.745,1.277,-3.022,0.264,0.385,0.588,-0.248,0.558,0.141,-0.266,-1.159,0.209
'0:00.660',-0.312,-3.179,-2.867,1.746,1.277,-3.024,0.264,0.383,0.587,-0.247,0.559,0.142,-0.266,-1.162,0.21
'0:00.661',-0.314,-3.179,-2.865,1.746,1.276,-3.022,0.265,0.382,0.587,-0.249,0.557,0.141,-0.269,-1.162,0.21
'0:00.662',-0.318,-3.183,-2.864,1.75,1.273,-3.023,0.266,0.38,0.585,-0.249,0.558,0.142,-0.269,-1.163,0.21
'0:00.663',-0.318,-3.184,-2.866,1.75,1.274,-3.025,0.265,0.379,0.584,-0.248,0.558,0.142,-0.267,-1.163,0.212
'0:00.664',-0.314,-3.183,-2.869,1.748,1.278,-3.026,0.264,0.379,0.584,-0.247,0.556,0.141,-0.268,-1.163,0.211
'0:00.665',-0.312,-3.18,-2.868,1.746,1.278,-3.024,0.264,0.379,0.582,-0.247,0.556,0.143,-0.269,-1.164,0.21
'0:00.666',-0.314,-3.182,-2.869,1.748,1.278,-3.026,0.264,0.377,0.581,-0.248,0.556,0.141,-0.269,-1.166,0.211
'0:00.667',-0.314,-3.185,-2.871,1.75,1.278,-3.029,0.264,0.377,0.582,-0.248,0.556,0.142,-0.268,-1.165,0.212
'0:00.668',-0.314,-3.186,-2.872,1.75,1.279,-3.03,0.264,0.377,0.58,-0.251,0.555,0.144,-0.267,-1.166,0.213
'0:00.669',-0.314,-3.185,-2.872,1.75,1.279,-3.029,0.261,0.375,0.577,-0.253,0.554,0.143,-0.27,-1.165,0.213
'0:00.670',-0.315,-3.185,-2.87,1.75,1.278,-3.028,0.261,0.374,0.576,-0.253,0.553,0.141,-0.271,-1.166,0.215
'0:00.671',-0.319,-3.189,-2.871,1.754,1.276,-3.03,0.261,0.374,0.575,-0.253,0.556,0.142,-0.266,-1.169,0.216
'0:00.672',-0.32,-3.191,-2.87,1.756,1.275,-3.031,0.261,0.374,0.574,-0.253,0.556,0.144,-0.268,-1.168,0.212
'0:00.673',-0.321,-3.192,-2.871,1.756,1.275,-3.032,0.263,0.374,0.574,-0.252,0.556,0.141,-0.269,-1.166,0.213
'0:00.674',-0.321,-3.192,-2.871,1.757,1.274,-3.032,0.261,0.371,0.571,-0.254,0.553,0.14,-0.269,-1.167,0.213
'0:00.675',-0.32,-3.191,-2.871,1.756,1.275,-3.031,0.26,0.368,0.57,-0.256,0.551,0.138,-0.272,-1.168,0.213
'0:00.676',-0.32,-3.191,-2.871,1.756,1.276,-3.031,0.261,0.369,0.571,-0.255,0.552,0.139,-0.27,-1.169,0.213
'0:00.677',-0.321,-3.187,-2.866,1.754,1.272,-3.027,0.259,0.366,0.567,-0.26,0.548,0.137,-0.273,-1.165,0.212
'0:00.678',-0.322,-3.188,-2.866,1.754,1.272,-3.027,0.258,0.364,0.564,-0.264,0.545,0.134,-0.274,-1.165,0.213
'0:00.679',-0.323,-3.188,-2.866,1.756,1.272,-3.028,0.259,0.364,0.565,-0.263,0.546,0.135,-0.274,-1.167,0.211
'0:00.680',-0.321,-3.187,-2.865,1.754,1.272,-3.026,0.259,0.363,0.566,-0.262,0.546,0.136,-0.274,-1.167,0.212
'0:00.681',-0.316,-3.186,-2.87,1.751,1.276,-3.028,0.259,0.361,0.564,-0.264,0.544,0.133,-0.274,-1.168,0.212
'0:00.682',-0.316,-3.184,-2.869,1.75,1.277,-3.027,0.257,0.358,0.561,-0.266,0.543,0.132,-0.273,-1.163,0.211
'0:00.683',-0.317,-3.188,-2.871,1.752,1.277,-3.03,0.256,0.359,0.561,-0.267,0.542,0.131,-0.273,-1.164,0.213
'0:00.684',-0.317,-3.189,-2.873,1.753,1.278,-3.031,0.256,0.359,0.561,-0.265,0.543,0.13,-0.275,-1.166,0.214
'0:00.685',-0.318,-3.191,-2.873,1.754,1.277,-3.031,0.254,0.358,0.562,-0.266,0.542,0.131,-0.274,-1.167,0.213
'0:00.686',-0.321,-3.191,-2.87,1.756,1.274,-3.03,0.254,0.357,0.558,-0.268,0.538,0.128,-0.275,-1.169,0.214
'0:00.687',-0.32,-3.188,-2.868,1.754,1.274,-3.029,0.255,0.354,0.556,-0.271,0.536,0.126,-0.278,-1.169,0.215
'0:00.688',-0.32,-3.188,-2.869,1.754,1.274,-3.029,0.256,0.354,0.554,-0.271,0.536,0.127,-0.281,-1.167,0.213
'0:00.689',-0.32,-3.188,-2.869,1.754,1.274,-3.029,0.255,0.352,0.553,-0.271,0.535,0.127,-0.283,-1.161,0.215
'0:00.690',-0.322,-3.187,-2.865,1.754,1.272,-3.026,0.254,0.351,0.552,-0.272,0.534,0.126,-0.282,-1.162,0.215
'0:00.691',-0.325,-3.19,-2.865,1.757,1.27,-3.028,0.254,0.349,0.549,-0.274,0.532,0.124,-0.284,-1.169,0.215
'0:00.692',-0.324,-3.189,-2.866,1.756,1.272,-3.028,0.252,0.346,0.547,-0.277,0.531,0.126,-0.282,-1.167,0.216
'0:00.693',-0.327,-3.188,-2.861,1.758,1.268,-3.025,0.254,0.35,0.549,-0.274,0.534,0.126,-0.281,-1.167,0.217
'0:00.694',-0.326,-3.188,-2.862,1.756,1.268,-3.025,0.255,0.346,0.546,-0.28,0.53,0.123,-0.283,-1.169,0.22
'0:00.695',-0.323,-3.186,-2.864,1.754,1.27,-3.025,0.253,0.343,0.542,-0.283,0.526,0.123,-0.282,-1.165,0.221
'0:00.696',-0.325,-3.183,-2.858,1.754,1.266,-3.022,0.254,0.343,0.543,-0.283,0.527,0.124,-0.281,-1.167,0.221
'0:00.697',-0.324,-3.181,-2.857,1.752,1.266,-3.019,0.253,0.341,0.541,-0.285,0.526,0.123,-0.281,-1.165,0.221
'0:00.698',-0.325,-3.18,-2.854,1.752,1.264,-3.018,0.253,0.341,0.542,-0.284,0.528,0.123,-0.282,-1.162,0.221
'0:00.699',-0.327,-3.178,-2.852,1.752,1.262,-3.015,0.254,0.339,0.54,-0.287,0.526,0.123,-0.284,-1.158,0.222
'0:00.700',-0.327,-3.18,-2.853,1.754,1.263,-3.017,0.254,0.338,0.537,-0.289,0.524,0.121,-0.284,-1.164,0.222
'0:00.701',-0.33,-3.179,-2.849,1.754,1.26,-3.014,0.253,0.337,0.538,-0.289,0.526,0.121,-0.284,-1.162,0.223
'0:00.702',-0.327,-3.178,-2.85,1.752,1.262,-3.014,0.253,0.339,0.537,-0.289,0.525,0.121,-0.284,-1.159,0.224
'0:00.703',-0.325,-3.179,-2.854,1.752,1.264,-3.017,0.253,0.336,0.535,-0.291,0.525,0.122,-0.283,-1.16,0.226
'0:00.704',-0.324,-3.18,-2.857,1.752,1.266,-3.018,0.253,0.336,0.536,-0.29,0.525,0.124,-0.282,-1.159,0.227
'0:00.705',-0.324,-3.183,-2.859,1.754,1.268,-3.021,0.254,0.338,0.536,-0.292,0.524,0.122,-0.286,-1.161,0.226
'0:00.706',-0.326,-3.185,-2.859,1.756,1.266,-3.022,0.252,0.337,0.535,-0.293,0.525,0.123,-0.284,-1.164,0.227
'0:00.707',-0.324,-3.184,-2.861,1.754,1.268,-3.023,0.254,0.339,0.538,-0.29,0.528,0.126,-0.282,-1.163,0.227
'0:00.708',-0.324,-3.184,-2.86,1.754,1.268,-3.022,0.253,0.338,0.535,-0.293,0.526,0.124,-0.284,-1.164,0.228
'0:00.709',-0.327,-3.186,-2.858,1.756,1.266,-3.022,0.251,0.336,0.533,-0.294,0.523,0.122,-0.285,-1.167,0.228
'0:00.710',-0.326,-3.184,-2.858,1.755,1.266,-3.022,0.252,0.335,0.532,-0.295,0.525,0.122,-0.286,-1.164,0.226
'0:00.711',-0.325,-3.184,-2.859,1.754,1.266,-3.022,0.25,0.333,0.531,-0.295,0.525,0.122,-0.284,-1.165,0.227
'0:00.712',-0.327,-3.184,-2.857,1.756,1.266,-3.021,0.254,0.334,0.531,-0.295,0.525,0.122,-0.287,-1.165,0.227
'0:00.713',-0.329,-3.186,-2.856,1.758,1.263,-3.021,0.252,0.332,0.53,-0.296,0.522,0.121,-0.288,-1.167,0.228
'0:00.714',-0.334,-3.191,-2.857,1.762,1.262,-3.025,0.251,0.332,0.529,-0.299,0.519,0.117,-0.288,-1.173,0.229
'0:00.715',-0.334,-3.191,-2.857,1.762,1.262,-3.024,0.252,0.331,0.528,-0.3,0.52,0.116,-0.29,-1.173,0.229
'0:00.716',-0.333,-3.192,-2.859,1.762,1.263,-3.026,0.251,0.328,0.526,-0.297,0.518,0.115,-0.288,-1.171,0.231
'0:00.717',-0.334,-3.192,-2.857,1.763,1.262,-3.025,0.253,0.329,0.525,-0.297,0.518,0.114,-0.29,-1.171,0.23
'0:00.718',-0.331,-3.189,-2.858,1.76,1.264,-3.025,0.252,0.327,0.523,-0.297,0.519,0.115,-0.288,-1.167,0.231
'0:00.719',-0.33,-3.189,-2.859,1.76,1.264,-3.024,0.249,0.326,0.523,-0.294,0.519,0.114,-0.287,-1.163,0.231
'0:00.720',-0.333,-3.189,-2.857,1.762,1.262,-3.023,0.247,0.325,0.523,-0.295,0.517,0.114,-0.29,-1.163,0.231
'0:00.721',-0.334,-3.19,-2.856,1.762,1.26,-3.023,0.248,0.325,0.526,-0.293,0.519,0.114,-0.29,-1.166,0.23
'0:00.722',-0.332,-3.187,-2.855,1.76,1.262,-3.021,0.248,0.326,0.527,-0.296,0.519,0.115,-0.29,-1.166,0.23
'0:00.723',-0.334,-3.19,-2.857,1.762,1.261,-3.023,0.246,0.322,0.522,-0.302,0.516,0.114,-0.289,-1.167,0.233
'0:00.724',-0.335,-3.19,-2.856,1.762,1.26,-3.023,0.246,0.321,0.52,-0.303,0.514,0.113,-0.289,-1.167,0.234
'0:00.725',-0.335,-3.189,-2.854,1.762,1.26,-3.022,0.244,0.319,0.52,-0.304,0.513,0.112,-0.291,-1.165,0.233
'0:00.726',-0.337,-3.192,-2.854,1.764,1.258,-3.023,0.246,0.32,0.521,-0.305,0.514,0.112,-0.29,-1.165,0.234
'0:00.727',-0.337,-3.191,-2.853,1.764,1.258,-3.022,0.247,0.321,0.521,-0.305,0.514,0.113,-0.29,-1.165,0.234
'0:00.728',-0.339,-3.189,-2.852,1.764,1.256,-3.021,0.245,0.318,0.52,-0.307,0.513,0.111,-0.292,-1.163,0.234
'0:00.729',-0.339,-3.188,-2.849,1.763,1.255,-3.019,0.244,0.318,0.519,-0.306,0.513,0.11,-0.289,-1.165,0.234
'0:00.730',-0.339,-3.191,-2.852,1.764,1.256,-3.022,0.243,0.32,0.52,-0.304,0.516,0.113,-0.285,-1.166,0.234
'0:00.731',-0.338,-3.191,-2.853,1.764,1.258,-3.022,0.242,0.317,0.517,-0.308,0.513,0.111,-0.288,-1.163,0.234
'0:00.732',-0.337,-3.191,-2.854,1.764,1.258,-3.023,0.243,0.32,0.521,-0.305,0.512,0.113,-0.291,-1.167,0.233
'0:00.733',-0.337,-3.191,-2.854,1.764,1.258,-3.023,0.242,0.321,0.521,-0.305,0.515,0.114,-0.288,-1.168,0.235
'0:00.734',-0.336,-3.189,-2.853,1.762,1.258,-3.021,0.239,0.313,0.51,-0.312,0.512,0.11,-0.289,-1.163,0.237
'0:00.735',-0.338,-3.19,-2.853,1.764,1.257,-3.022,0.242,0.315,0.513,-0.311,0.514,0.113,-0.291,-1.163,0.234
'0:00.736',-0.339,-3.192,-2.853,1.766,1.257,-3.023,0.242,0.315,0.514,-0.311,0.513,0.113,-0.291,-1.163,0.236
'0:00.737',-0.339,-3.192,-2.854,1.766,1.258,-3.023,0.242,0.316,0.515,-0.309,0.515,0.114,-0.29,-1.163,0.237
'0:00.738',-0.34,-3.193,-2.853,1.767,1.256,-3.024,0.242,0.317,0.515,-0.308,0.517,0.114,-0.288,-1.167,0.237
'0:00.739',-0.339,-3.193,-2.854,1.766,1.258,-3.024,0.242,0.316,0.512,-0.311,0.515,0.113,-0.29,-1.169,0.237
'0:00.740',-0.34,-3.193,-2.854,1.766,1.257,-3.024,0.241,0.314,0.51,-0.314,0.512,0.11,-0.292,-1.169,0.236
'0:00.741',-0.341,-3.195,-2.853,1.768,1.256,-3.025,0.241,0.312,0.508,-0.315,0.509,0.108,-0.294,-1.171,0.235
'0:00.742',-0.338,-3.194,-2.856,1.766,1.259,-3.026,0.243,0.314,0.51,-0.313,0.512,0.112,-0.294,-1.169,0.236
'0:00.743',-0.339,-3.194,-2.855,1.766,1.258,-3.025,0.24,0.312,0.51,-0.312,0.511,0.111,-0.293,-1.169,0.236
'0:00.744',-0.34,-3.195,-2.854,1.767,1.258,-3.025,0.241,0.312,0.511,-0.313,0.51,0.109,-0.294,-1.169,0.236
'0:00.745',-0.34,-3.193,-2.854,1.766,1.257,-3.025,0.239,0.312,0.51,-0.315,0.51,0.108,-0.295,-1.167,0.237
'0:00.746',-0.341,-3.192,-2.852,1.766,1.256,-3.022,0.24,0.312,0.509,-0.315,0.512,0.108,-0.296,-1.169,0.236
'0:00.747',-0.344,-3.196,-2.852,1.77,1.254,-3.024,0.243,0.309,0.507,-0.317,0.511,0.108,-0.298,-1.171,0.236
'0:00.748',-0.343,-3.196,-2.853,1.77,1.254,-3.025,0.242,0.307,0.506,-0.318,0.509,0.107,-0.299,-1.171,0.236
'0:00.749',-0.338,-3.194,-2.856,1.766,1.258,-3.025,0.244,0.308,0.506,-0.317,0.51,0.107,-0.297,-1.169,0.236
'0:00.750',-0.339,-3.195,-2.856,1.766,1.258,-3.025,0.243,0.306,0.505,-0.317,0.51,0.106,-0.296,-1.169,0.236
'0:00.751',-0.338,-3.192,-2.854,1.765,1.258,-3.023,0.244,0.309,0.506,-0.314,0.511,0.107,-0.297,-1.169,0.236
'0:00.752',-0.336,-3.191,-2.854,1.764,1.259,-3.023,0.243,0.309,0.507,-0.316,0.51,0.105,-0.299,-1.169,0.234
'0:00.753',-0.338,-3.191,-2.853,1.764,1.258,-3.022,0.24,0.306,0.505,-0.315,0.51,0.105,-0.298,-1.167,0.235
'0:00.754',-0.337,-3.189,-2.853,1.763,1.258,-3.021,0.24,0.306,0.505,-0.313,0.511,0.105,-0.297,-1.167,0.237
'0:00.755',-0.339,-3.191,-2.852,1.764,1.256,-3.021,0.242,0.307,0.505,-0.315,0.511,0.104,-0.299,-1.171,0.236
'0:00.756',-0.341,-3.192,-2.852,1.767,1.255,-3.022,0.244,0.307,0.505,-0.316,0.509,0.103,-0.301,-1.174,0.236
'0:00.757',-0.34,-3.193,-2.853,1.766,1.256,-3.023,0.243,0.307,0.504,-0.316,0.511,0.104,-0.299,-1.175,0.236
'0:00.758',-0.34,-3.196,-2.856,1.768,1.258,-3.026,0.244,0.307,0.503,-0.316,0.512,0.105,-0.298,-1.173,0.237
'0:00.759',-0.342,-3.197,-2.856,1.77,1.256,-3.026,0.243,0.308,0.504,-0.313,0.511,0.105,-0.298,-1.178,0.238
'0:00.760',-0.34,-3.196,-2.857,1.768,1.258,-3.026,0.241,0.307,0.504,-0.315,0.511,0.105,-0.298,-1.179,0.237
'0:00.761',-0.34,-3.196,-2.857,1.768,1.258,-3.026,0.243,0.308,0.504,-0.316,0.512,0.104,-0.3,-1.179,0.236
'0:00.762',-0.339,-3.195,-2.856,1.767,1.258,-3.026,0.245,0.31,0.507,-0.314,0.512,0.104,-0.298,-1.183,0.236
'0:00.763',-0.336,-3.192,-2.857,1.764,1.26,-3.025,0.242,0.307,0.503,-0.317,0.509,0.102,-0.299,-1.176,0.236
'0:00.764',-0.339,-3.195,-2.857,1.766,1.258,-3.026,0.243,0.305,0.5,-0.318,0.509,0.102,-0.3,-1.171,0.236
'0:00.765',-0.338,-3.193,-2.856,1.766,1.259,-3.025,0.244,0.306,0.501,-0.319,0.507,0.102,-0.301,-1.171,0.235
'0:00.766',-0.339,-3.192,-2.853,1.766,1.258,-3.023,0.244,0.305,0.5,-0.321,0.505,0.1,-0.304,-1.173,0.236
'0:00.767',-0.341,-3.197,-2.856,1.769,1.258,-3.027,0.244,0.305,0.499,-0.32,0.505,0.1,-0.302,-1.176,0.238
'0:00.768',-0.339,-3.193,-2.854,1.766,1.258,-3.024,0.245,0.306,0.5,-0.321,0.505,0.101,-0.304,-1.173,0.237
'0:00.769',-0.341,-3.191,-2.85,1.766,1.254,-3.021,0.247,0.306,0.501,-0.32,0.506,0.101,-0.304,-1.173,0.237
'0:00.770',-0.343,-3.193,-2.85,1.768,1.254,-3.022,0.244,0.305,0.499,-0.32,0.503,0.101,-0.302,-1.175,0.238
'0:00.771',-0.344,-3.191,-2.847,1.767,1.252,-3.019,0.243,0.305,0.498,-0.32,0.502,0.099,-0.301,-1.176,0.239
'0:00.772',-0.344,-3.187,-2.844,1.766,1.25,-3.015,0.243,0.304,0.497,-0.322,0.501,0.098,-0.302,-1.175,0.24
'0:00.773',-0.343,-3.186,-2.843,1.764,1.25,-3.014,0.241,0.302,0.496,-0.323,0.499,0.098,-0.303,-1.175,0.238
'0:00.774',-0.345,-3.187,-2.842,1.766,1.248,-3.014,0.24,0.3,0.494,-0.325,0.5,0.097,-0.302,-1.175,0.238
'0:00.775',-0.343,-3.186,-2.842,1.764,1.25,-3.014,0.241,0.3,0.495,-0.324,0.499,0.098,-0.301,-1.173,0.239
'0:00.776',-0.343,-3.185,-2.842,1.764,1.249,-3.014,0.241,0.3,0.495,-0.324,0.5,0.097,-0.302,-1.177,0.239
'0:00.777',-0.345,-3.186,-2.84,1.766,1.247,-3.013,0.239,0.3,0.495,-0.323,0.5,0.098,-0.3,-1.176,0.241
'0:00.778',-0.343,-3.183,-2.841,1.764,1.248,-3.013,0.241,0.3,0.496,-0.321,0.5,0.097,-0.301,-1.171,0.241
'0:00.779',-0.343,-3.183,-2.841,1.762,1.248,-3.011,0.24,0.298,0.495,-0.321,0.5,0.097,-0.302,-1.171,0.241
'0:00.780',-0.345,-3.184,-2.84,1.764,1.247,-3.012,0.24,0.298,0.495,-0.318,0.5,0.098,-0.301,-1.173,0.241
'0:00.781',-0.346,-3.187,-2.84,1.766,1.246,-3.013,0.241,0.297,0.495,-0.319,0.5,0.096,-0.303,-1.173,0.242
'0:00.782',-0.344,-3.184,-2.841,1.764,1.248,-3.013,0.239,0.297,0.495,-0.319,0.5,0.097,-0.298,-1.175,0.243
'0:00.783',-0.34,-3.183,-2.844,1.762,1.252,-3.014,0.24,0.299,0.497,-0.318,0.502,0.099,-0.298,-1.177,0.244
'0:00.784',-0.341,-3.186,-2.844,1.764,1.251,-3.015,0.241,0.298,0.497,-0.317,0.503,0.1,-0.298,-1.175,0.243
'0:00.785',-0.344,-3.188,-2.845,1.766,1.25,-3.017,0.241,0.298,0.497,-0.317,0.503,0.1,-0.297,-1.179,0.243
'0:00.786',-0.342,-3.186,-2.844,1.764,1.251,-3.015,0.24,0.298,0.495,-0.317,0.501,0.098,-0.3,-1.175,0.243
'0:00.787',-0.34,-3.183,-2.844,1.762,1.252,-3.014,0.238,0.296,0.495,-0.316,0.501,0.1,-0.3,-1.173,0.243
'0:00.788',-0.34,-3.183,-2.843,1.762,1.252,-3.014,0.239,0.297,0.496,-0.315,0.502,0.1,-0.298,-1.175,0.245
'0:00.789',-0.341,-3.182,-2.841,1.761,1.25,-3.011,0.238,0.298,0.495,-0.316,0.502,0.1,-0.296,-1.171,0.245
'0:00.790',-0.34,-3.179,-2.84,1.759,1.25,-3.01,0.236,0.297,0.495,-0.317,0.502,0.1,-0.297,-1.169,0.245
'0:00.791',-0.34,-3.177,-2.837,1.758,1.248,-3.007,0.238,0.297,0.494,-0.316,0.501,0.099,-0.296,-1.17,0.246
'0:00.792',-0.34,-3.177,-2.837,1.758,1.248,-3.007,0.239,0.297,0.494,-0.317,0.501,0.1,-0.299,-1.171,0.244
'0:00.793',-0.341,-3.179,-2.837,1.76,1.248,-3.008,0.239,0.297,0.495,-0.315,0.502,0.101,-0.302,-1.172,0.243
'0:00.794',-0.342,-3.178,-2.836,1.76,1.247,-3.006,0.239,0.297,0.494,-0.315,0.503,0.101,-0.299,-1.171,0.245
'0:00.795',-0.34,-3.176,-2.837,1.758,1.248,-3.006,0.238,0.296,0.493,-0.317,0.501,0.101,-0.297,-1.171,0.247
'0:00.796',-0.344,-3.179,-2.834,1.761,1.245,-3.006,0.24,0.298,0.495,-0.315,0.5,0.102,-0.297,-1.171,0.246
'0:00.797',-0.344,-3.179,-2.834,1.762,1.244,-3.006,0.238,0.297,0.493,-0.315,0.498,0.1,-0.299,-1.173,0.247
'0:00.798',-0.342,-3.178,-2.837,1.76,1.247,-3.007,0.238,0.295,0.492,-0.317,0.496,0.098,-0.3,-1.171,0.25
'0:00.799',-0.341,-3.176,-2.835,1.759,1.247,-3.006,0.239,0.295,0.492,-0.317,0.495,0.098,-0.3,-1.171,0.25
'0:00.800',-0.34,-3.174,-2.834,1.757,1.247,-3.005,0.237,0.294,0.49,-0.318,0.494,0.096,-0.3,-1.171,0.251
'0:00.801',-0.34,-3.174,-2.833,1.757,1.246,-3.003,0.24,0.295,0.491,-0.317,0.496,0.095,-0.302,-1.17,0.249
'0:00.802',-0.341,-3.175,-2.834,1.758,1.246,-3.005,0.239,0.295,0.49,-0.318,0.493,0.093,-0.303,-1.173,0.251
'0:00.803',-0.342,-3.175,-2.832,1.758,1.245,-3.003,0.239,0.293,0.488,-0.32,0.49,0.092,-0.305,-1.173,0.252
'0:00.804',-0.344,-3.175,-2.832,1.759,1.244,-3.003,0.239,0.292,0.486,-0.321,0.489,0.091,-0.305,-1.171,0.253
'0:00.805',-0.345,-3.176,-2.83,1.76,1.242,-3.003,0.239,0.293,0.484,-0.323,0.488,0.089,-0.303,-1.169,0.254
'0:00.806',-0.346,-3.174,-2.829,1.76,1.241,-3.002,0.241,0.294,0.484,-0.321,0.49,0.09,-0.305,-1.166,0.253
'0:00.807',-0.344,-3.178,-2.833,1.761,1.244,-3.006,0.24,0.294,0.484,-0.322,0.489,0.089,-0.305,-1.173,0.254
'0:00.808',-0.343,-3.179,-2.837,1.761,1.247,-3.008,0.24,0.294,0.485,-0.321,0.489,0.089,-0.304,-1.18,0.255
'0:00.809',-0.343,-3.177,-2.834,1.76,1.246,-3.006,0.241,0.295,0.485,-0.32,0.488,0.091,-0.306,-1.173,0.255
'0:00.810',-0.344,-3.175,-2.832,1.76,1.244,-3.003,0.242,0.295,0.484,-0.319,0.488,0.089,-0.305,-1.175,0.255
'0:00.811',-0.341,-3.172,-2.832,1.756,1.245,-3.002,0.242,0.295,0.485,-0.317,0.49,0.088,-0.303,-1.175,0.255
'0:00.812',-0.34,-3.172,-2.833,1.756,1.246,-3.003,0.242,0.296,0.485,-0.316,0.491,0.089,-0.304,-1.169,0.256
'0:00.813',-0.343,-3.174,-2.831,1.758,1.244,-3.002,0.243,0.294,0.484,-0.317,0.491,0.09,-0.303,-1.172,0.256
'0:00.814',-0.344,-3.175,-2.83,1.76,1.243,-3.003,0.243,0.293,0.484,-0.317,0.491,0.089,-0.302,-1.172,0.258
'0:00.815',-0.346,-3.176,-2.83,1.761,1.242,-3.003,0.242,0.293,0.483,-0.317,0.491,0.09,-0.302,-1.171,0.259
'0:00.816',-0.344,-3.176,-2.833,1.76,1.244,-3.005,0.239,0.292,0.481,-0.318,0.49,0.09,-0.303,-1.173,0.258
'0:00.817',-0.342,-3.178,-2.836,1.76,1.246,-3.007,0.241,0.292,0.482,-0.316,0.494,0.091,-0.302,-1.175,0.257
'0:00.818',-0.342,-3.177,-2.834,1.76,1.246,-3.006,0.239,0.29,0.48,-0.318,0.493,0.09,-0.301,-1.173,0.258
'0:00.819',-0.342,-3.176,-2.834,1.759,1.246,-3.006,0.237,0.29,0.48,-0.317,0.492,0.09,-0.3,-1.169,0.258
'0:00.820',-0.345,-3.178,-2.832,1.762,1.243,-3.005,0.239,0.291,0.481,-0.316,0.493,0.09,-0.302,-1.173,0.257
'0:00.821',-0.344,-3.176,-2.833,1.76,1.244,-3.005,0.238,0.291,0.48,-0.317,0.494,0.091,-0.302,-1.172,0.257
'0:00.822',-0.344,-3.178,-2.834,1.761,1.245,-3.007,0.238,0.292,0.481,-0.315,0.497,0.094,-0.297,-1.171,0.257
'0:00.823',-0.344,-3.177,-2.833,1.76,1.244,-3.006,0.239,0.292,0.48,-0.317,0.495,0.091,-0.299,-1.173,0.258
'0:00.824',-0.343,-3.178,-2.834,1.76,1.246,-3.006,0.24,0.293,0.481,-0.315,0.496,0.09,-0.302,-1.171,0.257
'0:00.825',-0.344,-3.182,-2.838,1.763,1.246,-3.01,0.239,0.292,0.478,-0.315,0.496,0.093,-0.3,-1.175,0.259
'0:00.826',-0.344,-3.181,-2.837,1.762,1.246,-3.01,0.238,0.292,0.477,-0.316,0.497,0.092,-0.299,-1.175,0.259
'0:00.827',-0.342,-3.179,-2.837,1.76,1.248,-3.009,0.239,0.291,0.479,-0.315,0.498,0.092,-0.301,-1.176,0.257
'0:00.828',-0.34,-3.178,-2.838,1.759,1.249,-3.009,0.238,0.29,0.479,-0.315,0.499,0.092,-0.299,-1.175,0.258
'0:00.829',-0.339,-3.176,-2.838,1.758,1.25,-3.007,0.237,0.291,0.48,-0.313,0.5,0.094,-0.297,-1.175,0.259
'0:00.830',-0.338,-3.172,-2.835,1.755,1.248,-3.004,0.237,0.291,0.481,-0.312,0.5,0.095,-0.297,-1.171,0.259
'0:00.831',-0.339,-3.171,-2.833,1.755,1.246,-3.002,0.239,0.291,0.478,-0.315,0.499,0.095,-0.298,-1.171,0.26
'0:00.832',-0.34,-3.175,-2.835,1.757,1.248,-3.005,0.239,0.291,0.478,-0.314,0.5,0.095,-0.298,-1.173,0.259
'0:00.833',-0.34,-3.175,-2.835,1.757,1.248,-3.005,0.239,0.292,0.481,-0.308,0.504,0.096,-0.297,-1.175,0.257
'0:00.834',-0.343,-3.178,-2.835,1.76,1.246,-3.006,0.241,0.291,0.481,-0.308,0.503,0.095,-0.299,-1.177,0.257
'0:00.835',-0.344,-3.181,-2.837,1.762,1.246,-3.009,0.24,0.291,0.481,-0.311,0.502,0.092,-0.3,-1.174,0.257
'0:00.836',-0.343,-3.181,-2.838,1.762,1.248,-3.01,0.242,0.292,0.483,-0.309,0.504,0.096,-0.3,-1.174,0.257
'0:00.837',-0.346,-3.182,-2.836,1.764,1.244,-3.009,0.242,0.292,0.484,-0.308,0.504,0.096,-0.302,-1.171,0.257
'0:00.838',-0.349,-3.186,-2.837,1.768,1.243,-3.011,0.238,0.29,0.481,-0.31,0.502,0.093,-0.302,-1.173,0.26
'0:00.839',-0.348,-3.186,-2.837,1.767,1.244,-3.011,0.239,0.291,0.482,-0.309,0.503,0.092,-0.303,-1.178,0.259
'0:00.840',-0.344,-3.18,-2.837,1.762,1.246,-3.009,0.239,0.29,0.482,-0.309,0.502,0.092,-0.302,-1.176,0.257
'0:00.841',-0.341,-3.181,-2.841,1.761,1.25,-3.011,0.236,0.288,0.479,-0.315,0.5,0.092,-0.3,-1.176,0.26
'0:00.842',-0.344,-3.182,-2.837,1.762,1.246,-3.01,0.238,0.289,0.48,-0.314,0.502,0.094,-0.3,-1.175,0.259
'0:00.843',-0.345,-3.183,-2.837,1.764,1.245,-3.01,0.237,0.29,0.48,-0.312,0.503,0.095,-0.299,-1.171,0.259
'0:00.844',-0.345,-3.183,-2.838,1.764,1.246,-3.011,0.236,0.292,0.482,-0.312,0.501,0.093,-0.3,-1.173,0.258
'0:00.845',-0.343,-3.183,-2.84,1.763,1.248,-3.011,0.236,0.292,0.484,-0.311,0.501,0.092,-0.3,-1.177,0.257
'0:00.846',-0.341,-3.182,-2.841,1.761,1.25,-3.011,0.235,0.291,0.483,-0.311,0.501,0.093,-0.3,-1.175,0.258
'0:00.847',-0.341,-3.18,-2.84,1.76,1.25,-3.01,0.236,0.286,0.477,-0.318,0.5,0.094,-0.301,-1.173,0.259
'0:00.848',-0.339,-3.178,-2.838,1.758,1.25,-3.008,0.236,0.287,0.477,-0.318,0.499,0.093,-0.301,-1.171,0.259
'0:00.849',-0.341,-3.179,-2.838,1.76,1.248,-3.009,0.235,0.289,0.481,-0.315,0.499,0.093,-0.303,-1.173,0.257
'0:00.850',-0.342,-3.178,-2.836,1.76,1.246,-3.007,0.235,0.288,0.48,-0.316,0.499,0.091,-0.304,-1.173,0.257
'0:00.851',-0.341,-3.175,-2.834,1.758,1.246,-3.005,0.236,0.288,0.48,-0.316,0.499,0.091,-0.304,-1.169,0.257
'0:00.852',-0.339,-3.175,-2.836,1.757,1.248,-3.006,0.236,0.288,0.48,-0.317,0.498,0.091,-0.304,-1.17,0.257
'0:00.853',-0.339,-3.175,-2.836,1.756,1.248,-3.006,0.234,0.287,0.478,-0.318,0.497,0.09,-0.301,-1.171,0.259
'0:00.854',-0.342,-3.176,-2.834,1.758,1.246,-3.005,0.234,0.286,0.476,-0.319,0.497,0.089,-0.302,-1.171,0.259
'0:00.855',-0.342,-3.177,-2.836,1.759,1.246,-3.006,0.236,0.287,0.479,-0.316,0.497,0.088,-0.306,-1.173,0.257
'0:00.856',-0.337,-3.177,-2.84,1.757,1.251,-3.009,0.235,0.288,0.48,-0.316,0.498,0.089,-0.305,-1.171,0.258
'0:00.857',-0.335,-3.175,-2.84,1.754,1.252,-3.007,0.236,0.288,0.48,-0.314,0.499,0.09,-0.303,-1.168,0.259
'0:00.858',-0.337,-3.176,-2.84,1.756,1.252,-3.009,0.234,0.286,0.48,-0.315,0.497,0.089,-0.304,-1.171,0.26
'0:00.859',-0.339,-3.176,-2.837,1.758,1.249,-3.007,0.235,0.287,0.479,-0.315,0.498,0.089,-0.306,-1.169,0.259
'0:00.860',-0.339,-3.174,-2.835,1.756,1.248,-3.005,0.237,0.289,0.481,-0.312,0.499,0.089,-0.305,-1.167,0.257
'0:00.861',-0.336,-3.174,-2.837,1.754,1.25,-3.006,0.237,0.289,0.48,-0.312,0.5,0.091,-0.302,-1.167,0.257
'0:00.862',-0.335,-3.173,-2.838,1.754,1.252,-3.006,0.235,0.289,0.48,-0.311,0.503,0.094,-0.3,-1.167,0.258
'0:00.863',-0.334,-3.174,-2.841,1.754,1.253,-3.007,0.234,0.288,0.478,-0.314,0.497,0.089,-0.304,-1.169,0.259
'0:00.864',-0.336,-3.176,-2.84,1.756,1.252,-3.008,0.234,0.287,0.478,-0.314,0.495,0.088,-0.307,-1.167,0.258
'0:00.865',-0.335,-3.176,-2.842,1.756,1.254,-3.01,0.233,0.288,0.478,-0.313,0.496,0.089,-0.305,-1.171,0.259
'0:00.866',-0.332,-3.177,-2.845,1.754,1.256,-3.011,0.232,0.285,0.475,-0.316,0.493,0.087,-0.303,-1.172,0.26
'0:00.867',-0.334,-3.176,-2.843,1.755,1.254,-3.01,0.233,0.287,0.477,-0.314,0.496,0.087,-0.304,-1.169,0.258
'0:00.868',-0.334,-3.176,-2.843,1.755,1.254,-3.01,0.233,0.289,0.477,-0.313,0.496,0.088,-0.306,-1.169,0.258
'0:00.869',-0.333,-3.178,-2.845,1.755,1.256,-3.011,0.232,0.288,0.478,-0.312,0.495,0.088,-0.303,-1.171,0.258
'0:00.870',-0.334,-3.179,-2.845,1.756,1.256,-3.013,0.233,0.292,0.482,-0.31,0.496,0.087,-0.302,-1.173,0.259
'0:00.871',-0.337,-3.181,-2.845,1.758,1.254,-3.013,0.232,0.287,0.474,-0.317,0.496,0.086,-0.305,-1.171,0.261
'0:00.872',-0.334,-3.182,-2.848,1.758,1.256,-3.014,0.232,0.286,0.472,-0.317,0.495,0.087,-0.304,-1.172,0.261
'0:00.873',-0.334,-3.182,-2.849,1.758,1.257,-3.015,0.234,0.289,0.476,-0.313,0.497,0.088,-0.304,-1.173,0.261
'0:00.874',-0.335,-3.184,-2.849,1.76,1.257,-3.018,0.234,0.29,0.475,-0.312,0.498,0.089,-0.303,-1.173,0.261
'0:00.875',-0.335,-3.187,-2.852,1.761,1.258,-3.019,0.235,0.29,0.477,-0.31,0.499,0.09,-0.304,-1.175,0.261
'0:00.876',-0.334,-3.186,-2.852,1.76,1.259,-3.019,0.237,0.29,0.477,-0.31,0.499,0.09,-0.304,-1.173,0.262
'0:00.877',-0.335,-3.186,-2.852,1.76,1.258,-3.019,0.235,0.289,0.475,-0.309,0.499,0.089,-0.303,-1.174,0.263
'0:00.878',-0.338,-3.187,-2.849,1.762,1.256,-3.018,0.234,0.288,0.475,-0.31,0.499,0.088,-0.304,-1.177,0.263
'0:00.879',-0.339,-3.186,-2.848,1.762,1.254,-3.017,0.233,0.288,0.476,-0.312,0.5,0.089,-0.302,-1.179,0.263
'0:00.880',-0.337,-3.183,-2.846,1.76,1.254,-3.015,0.234,0.289,0.477,-0.311,0.5,0.089,-0.302,-1.175,0.263
'0:00.881',-0.332,-3.178,-2.846,1.755,1.257,-3.012,0.234,0.291,0.478,-0.31,0.501,0.089,-0.303,-1.167,0.262
'0:00.882',-0.331,-3.176,-2.845,1.754,1.257,-3.011,0.233,0.291,0.478,-0.31,0.502,0.09,-0.302,-1.169,0.263
'0:00.883',-0.334,-3.179,-2.846,1.756,1.256,-3.013,0.233,0.29,0.477,-0.312,0.501,0.088,-0.303,-1.173,0.263
'0:00.884',-0.337,-3.179,-2.843,1.758,1.254,-3.011,0.234,0.29,0.476,-0.313,0.5,0.086,-0.305,-1.173,0.262
'0:00.885',-0.334,-3.177,-2.843,1.756,1.254,-3.01,0.234,0.291,0.477,-0.312,0.499,0.086,-0.303,-1.173,0.262
'0:00.886',-0.331,-3.176,-2.845,1.754,1.256,-3.011,0.234,0.294,0.478,-0.311,0.502,0.089,-0.299,-1.171,0.264
'0:00.887',-0.331,-3.176,-2.845,1.754,1.257,-3.011,0.232,0.29,0.475,-0.315,0.498,0.086,-0.301,-1.171,0.265
'0:00.888',-0.334,-3.179,-2.846,1.756,1.256,-3.013,0.232,0.287,0.474,-0.315,0.496,0.084,-0.304,-1.173,0.264
'0:00.889',-0.338,-3.181,-2.843,1.759,1.252,-3.012,0.233,0.29,0.476,-0.311,0.499,0.085,-0.304,-1.175,0.263
'0:00.890',-0.339,-3.182,-2.843,1.76,1.252,-3.013,0.234,0.29,0.474,-0.315,0.498,0.085,-0.304,-1.177,0.264
'0:00.891',-0.337,-3.179,-2.841,1.758,1.252,-3.01,0.235,0.291,0.477,-0.312,0.498,0.085,-0.305,-1.177,0.263
'0:00.892',-0.337,-3.178,-2.842,1.758,1.252,-3.01,0.235,0.292,0.476,-0.312,0.496,0.084,-0.306,-1.173,0.262
'0:00.893',-0.339,-3.183,-2.845,1.761,1.253,-3.014,0.236,0.29,0.476,-0.314,0.496,0.083,-0.304,-1.175,0.265
'0:00.894',-0.337,-3.184,-2.848,1.76,1.255,-3.016,0.235,0.289,0.477,-0.312,0.496,0.082,-0.302,-1.179,0.264
'0:00.895',-0.334,-3.183,-2.85,1.758,1.258,-3.017,0.236,0.289,0.477,-0.313,0.497,0.083,-0.305,-1.179,0.26
'0:00.896',-0.335,-3.184,-2.849,1.76,1.256,-3.017,0.237,0.29,0.477,-0.311,0.497,0.083,-0.307,-1.178,0.259
'0:00.897',-0.336,-3.184,-2.848,1.76,1.256,-3.017,0.237,0.292,0.48,-0.31,0.499,0.086,-0.305,-1.177,0.26
'0:00.898',-0.337,-3.187,-2.85,1.762,1.256,-3.018,0.239,0.292,0.48,-0.311,0.498,0.085,-0.305,-1.18,0.261
'0:00.899',-0.338,-3.188,-2.85,1.762,1.256,-3.019,0.238,0.29,0.477,-0.314,0.496,0.084,-0.304,-1.179,0.261
'0:00.900',-0.339,-3.188,-2.849,1.763,1.256,-3.019,0.239,0.29,0.478,-0.311,0.498,0.086,-0.303,-1.179,0.26
'0:00.901',-0.34,-3.188,-2.849,1.764,1.254,-3.019,0.239,0.291,0.479,-0.309,0.499,0.086,-0.304,-1.179,0.259
'0:00.902',-0.341,-3.19,-2.849,1.766,1.254,-3.019,0.24,0.291,0.48,-0.31,0.5,0.086,-0.305,-1.183,0.259
'0:00.903',-0.341,-3.19,-2.849,1.765,1.254,-3.02,0.242,0.292,0.479,-0.309,0.501,0.088,-0.303,-1.183,0.259
'0:00.904',-0.338,-3.186,-2.848,1.762,1.254,-3.018,0.241,0.292,0.479,-0.308,0.501,0.09,-0.303,-1.175,0.257
'0:00.905',-0.337,-3.186,-2.848,1.761,1.256,-3.017,0.242,0.293,0.48,-0.309,0.501,0.087,-0.304,-1.175,0.255
'0:00.906',-0.335,-3.183,-2.848,1.758,1.256,-3.015,0.243,0.296,0.484,-0.305,0.503,0.091,-0.302,-1.173,0.256
'0:00.907',-0.334,-3.181,-2.847,1.758,1.256,-3.014,0.244,0.296,0.484,-0.303,0.505,0.092,-0.299,-1.171,0.256
'0:00.908',-0.338,-3.18,-2.842,1.759,1.252,-3.011,0.244,0.296,0.483,-0.303,0.504,0.092,-0.3,-1.171,0.255
'0:00.909',-0.338,-3.177,-2.839,1.758,1.25,-3.008,0.246,0.299,0.486,-0.301,0.507,0.096,-0.3,-1.167,0.252
'0:00.910',-0.336,-3.175,-2.838,1.756,1.251,-3.006,0.248,0.301,0.488,-0.298,0.509,0.096,-0.298,-1.165,0.251
'0:00.911',-0.335,-3.167,-2.832,1.75,1.248,-2.999,0.252,0.303,0.489,-0.296,0.51,0.097,-0.299,-1.157,0.247
'0:00.912',-0.331,-3.159,-2.828,1.745,1.248,-2.994,0.253,0.304,0.492,-0.294,0.513,0.098,-0.3,-1.153,0.245
'0:00.913',-0.331,-3.159,-2.828,1.744,1.248,-2.994,0.253,0.306,0.496,-0.291,0.517,0.102,-0.294,-1.154,0.246
'0:00.914',-0.327,-3.155,-2.828,1.74,1.25,-2.991,0.253,0.307,0.496,-0.29,0.519,0.104,-0.294,-1.151,0.245
'0:00.915',-0.325,-3.147,-2.822,1.736,1.248,-2.985,0.253,0.309,0.498,-0.287,0.52,0.106,-0.295,-1.143,0.242
'0:00.916',-0.325,-3.142,-2.817,1.734,1.246,-2.981,0.254,0.312,0.504,-0.28,0.525,0.109,-0.292,-1.139,0.242
'0:00.917',-0.323,-3.135,-2.813,1.729,1.245,-2.974,0.256,0.314,0.506,-0.279,0.526,0.111,-0.295,-1.132,0.239
'0:00.918',-0.324,-3.132,-2.808,1.728,1.242,-2.97,0.257,0.315,0.508,-0.277,0.528,0.113,-0.295,-1.129,0.238
'0:00.919',-0.322,-3.131,-2.81,1.726,1.244,-2.971,0.255,0.314,0.508,-0.278,0.527,0.112,-0.292,-1.13,0.241
'0:00.920',-0.321,-3.131,-2.809,1.726,1.244,-2.97,0.255,0.316,0.509,-0.278,0.527,0.112,-0.29,-1.128,0.24
'0:00.921',-0.32,-3.128,-2.808,1.724,1.244,-2.968,0.259,0.319,0.512,-0.274,0.53,0.115,-0.289,-1.123,0.237
'0:00.922',-0.317,-3.122,-2.805,1.72,1.244,-2.964,0.261,0.32,0.514,-0.273,0.531,0.116,-0.289,-1.118,0.235
'0:00.923',-0.319,-3.124,-2.805,1.722,1.243,-2.965,0.26,0.32,0.514,-0.273,0.531,0.115,-0.289,-1.121,0.235
'0:00.924',-0.322,-3.124,-2.803,1.724,1.24,-2.963,0.261,0.319,0.513,-0.274,0.53,0.115,-0.29,-1.119,0.235
'0:00.925',-0.322,-3.119,-2.797,1.72,1.238,-2.959,0.266,0.32,0.514,-0.272,0.534,0.116,-0.289,-1.114,0.233
'0:00.926',-0.316,-3.116,-2.8,1.716,1.242,-2.958,0.263,0.322,0.516,-0.27,0.534,0.118,-0.285,-1.115,0.234
'0:00.927',-0.315,-3.116,-2.801,1.716,1.243,-2.959,0.26,0.322,0.515,-0.269,0.533,0.119,-0.282,-1.113,0.237
'0:00.928',-0.315,-3.118,-2.803,1.716,1.244,-2.961,0.257,0.32,0.515,-0.269,0.532,0.119,-0.28,-1.117,0.239
'0:00.929',-0.312,-3.115,-2.803,1.714,1.245,-2.959,0.254,0.318,0.515,-0.269,0.532,0.119,-0.28,-1.115,0.241
'0:00.930',-0.312,-3.111,-2.8,1.712,1.244,-2.955,0.253,0.318,0.515,-0.267,0.535,0.121,-0.278,-1.111,0.241
'0:00.931',-0.314,-3.108,-2.795,1.712,1.24,-2.951,0.254,0.317,0.514,-0.271,0.534,0.121,-0.278,-1.113,0.241
'0:00.932',-0.316,-3.105,-2.789,1.71,1.236,-2.947,0.254,0.32,0.517,-0.269,0.535,0.121,-0.28,-1.109,0.24
'0:00.933',-0.311,-3.101,-2.791,1.706,1.24,-2.946,0.25,0.317,0.516,-0.268,0.535,0.121,-0.278,-1.103,0.243
'0:00.934',-0.307,-3.099,-2.792,1.703,1.242,-2.946,0.247,0.316,0.514,-0.27,0.535,0.122,-0.275,-1.101,0.246
'0:00.935',-0.304,-3.099,-2.793,1.702,1.244,-2.946,0.246,0.32,0.518,-0.265,0.537,0.121,-0.272,-1.099,0.243
'0:00.936',-0.306,-3.102,-2.796,1.704,1.244,-2.949,0.254,0.322,0.519,-0.266,0.535,0.12,-0.274,-1.105,0.237
'0:00.937',-0.311,-3.108,-2.797,1.71,1.243,-2.954,0.258,0.325,0.52,-0.266,0.537,0.122,-0.274,-1.111,0.234
'0:00.938',-0.312,-3.112,-2.8,1.712,1.244,-2.956,0.256,0.323,0.518,-0.265,0.536,0.12,-0.27,-1.115,0.235
'0:00.939',-0.311,-3.11,-2.799,1.71,1.244,-2.954,0.255,0.324,0.521,-0.263,0.537,0.121,-0.268,-1.115,0.233
'0:00.940',-0.308,-3.103,-2.796,1.706,1.244,-2.95,0.261,0.332,0.53,-0.256,0.543,0.127,-0.266,-1.109,0.228
'0:00.941',-0.306,-3.099,-2.792,1.702,1.243,-2.946,0.264,0.338,0.535,-0.252,0.549,0.13,-0.262,-1.107,0.225
'0:00.942',-0.303,-3.095,-2.792,1.699,1.244,-2.943,0.261,0.338,0.536,-0.248,0.551,0.132,-0.259,-1.107,0.226
'0:00.943',-0.3,-3.09,-2.789,1.695,1.244,-2.94,0.26,0.338,0.539,-0.244,0.553,0.134,-0.256,-1.103,0.225
'0:00.944',-0.298,-3.087,-2.788,1.692,1.244,-2.938,0.255,0.339,0.539,-0.244,0.557,0.137,-0.252,-1.097,0.228
'0:00.945',-0.295,-3.086,-2.79,1.69,1.247,-2.938,0.244,0.335,0.537,-0.242,0.558,0.14,-0.248,-1.094,0.234
'0:00.946',-0.293,-3.086,-2.792,1.69,1.248,-2.939,0.233,0.331,0.535,-0.241,0.561,0.14,-0.244,-1.096,0.24
'0:00.947',-0.289,-3.083,-2.792,1.686,1.251,-2.938,0.229,0.333,0.536,-0.237,0.566,0.145,-0.239,-1.095,0.245
'0:00.948',-0.283,-3.079,-2.796,1.681,1.256,-2.938,0.223,0.333,0.539,-0.234,0.57,0.15,-0.233,-1.094,0.251
'0:00.949',-0.278,-3.078,-2.8,1.678,1.262,-2.939,0.213,0.335,0.54,-0.231,0.575,0.153,-0.226,-1.095,0.257
'0:00.950',-0.273,-3.075,-2.802,1.673,1.264,-2.938,0.208,0.339,0.544,-0.224,0.579,0.158,-0.22,-1.093,0.259
'0:00.951',-0.27,-3.072,-2.803,1.671,1.266,-2.938,0.204,0.34,0.547,-0.22,0.581,0.159,-0.216,-1.097,0.261
'0:00.952',-0.267,-3.075,-2.809,1.671,1.27,-2.942,0.2,0.342,0.549,-0.216,0.585,0.163,-0.21,-1.102,0.263
'0:00.953',-0.261,-3.075,-2.814,1.668,1.276,-2.945,0.195,0.344,0.554,-0.212,0.59,0.168,-0.203,-1.099,0.266
'0:00.954',-0.258,-3.072,-2.816,1.665,1.278,-2.944,0.197,0.346,0.557,-0.209,0.593,0.171,-0.202,-1.099,0.266
'0:00.955',-0.257,-3.071,-2.813,1.664,1.278,-2.942,0.199,0.346,0.556,-0.209,0.592,0.17,-0.201,-1.097,0.266
'0:00.956',-0.258,-3.075,-2.817,1.667,1.28,-2.947,0.199,0.346,0.555,-0.21,0.591,0.169,-0.2,-1.097,0.264
'0:00.957',-0.258,-3.078,-2.82,1.668,1.28,-2.949,0.207,0.352,0.561,-0.205,0.594,0.171,-0.198,-1.105,0.256
'0:00.958',-0.253,-3.073,-2.821,1.663,1.284,-2.947,0.214,0.362,0.571,-0.197,0.599,0.173,-0.192,-1.105,0.248
'0:00.959',-0.245,-3.067,-2.822,1.657,1.288,-2.945,0.222,0.371,0.579,-0.189,0.606,0.179,-0.188,-1.101,0.244
'0:00.960',-0.244,-3.06,-2.816,1.652,1.286,-2.938,0.226,0.37,0.577,-0.19,0.605,0.179,-0.187,-1.097,0.24
'0:00.961',-0.243,-3.059,-2.817,1.651,1.286,-2.938,0.224,0.367,0.574,-0.193,0.604,0.177,-0.188,-1.097,0.241
'0:00.962',-0.244,-3.066,-2.821,1.655,1.288,-2.943,0.225,0.365,0.572,-0.194,0.602,0.177,-0.19,-1.104,0.244
'0:00.963',-0.246,-3.072,-2.825,1.659,1.289,-2.949,0.228,0.363,0.57,-0.198,0.6,0.176,-0.192,-1.109,0.244
'0:00.964',-0.247,-3.075,-2.828,1.661,1.29,-2.951,0.225,0.359,0.567,-0.202,0.597,0.175,-0.194,-1.112,0.245
'0:00.965',-0.249,-3.078,-2.829,1.664,1.289,-2.954,0.223,0.356,0.564,-0.202,0.596,0.173,-0.195,-1.114,0.246
'0:00.966',-0.251,-3.077,-2.826,1.665,1.287,-2.951,0.224,0.357,0.565,-0.2,0.598,0.175,-0.194,-1.111,0.244
'0:00.967',-0.252,-3.077,-2.825,1.665,1.286,-2.951,0.221,0.354,0.561,-0.204,0.597,0.175,-0.193,-1.111,0.246
'0:00.968',-0.253,-3.079,-2.826,1.667,1.286,-2.953,0.217,0.349,0.557,-0.209,0.594,0.172,-0.196,-1.113,0.249
'0:00.969',-0.256,-3.081,-2.825,1.668,1.285,-2.954,0.213,0.341,0.549,-0.213,0.589,0.171,-0.199,-1.115,0.253
'0:00.970',-0.256,-3.085,-2.829,1.67,1.286,-2.958,0.206,0.328,0.536,-0.226,0.581,0.167,-0.205,-1.117,0.26
'0:00.971',-0.258,-3.088,-2.831,1.673,1.286,-2.96,0.2,0.316,0.523,-0.238,0.57,0.163,-0.211,-1.119,0.269
'0:00.972',-0.263,-3.091,-2.829,1.677,1.282,-2.96,0.195,0.305,0.515,-0.245,0.567,0.159,-0.215,-1.119,0.277
'0:00.973',-0.267,-3.094,-2.826,1.681,1.279,-2.96,0.195,0.301,0.51,-0.251,0.562,0.157,-0.218,-1.116,0.278
'0:00.974',-0.272,-3.095,-2.823,1.683,1.276,-2.959,0.205,0.308,0.514,-0.25,0.561,0.157,-0.223,-1.117,0.272
'0:00.975',-0.279,-3.095,-2.817,1.687,1.269,-2.957,0.217,0.316,0.52,-0.245,0.564,0.156,-0.227,-1.119,0.261
'0:00.976',-0.284,-3.1,-2.817,1.692,1.266,-2.959,0.218,0.316,0.521,-0.243,0.564,0.157,-0.228,-1.122,0.26
'0:00.977',-0.287,-3.112,-2.825,1.7,1.269,-2.969,0.216,0.313,0.518,-0.246,0.56,0.154,-0.23,-1.133,0.264
'0:00.978',-0.288,-3.128,-2.84,1.708,1.276,-2.984,0.211,0.302,0.504,-0.262,0.548,0.146,-0.236,-1.146,0.271
'0:00.979',-0.29,-3.144,-2.854,1.717,1.282,-3,0.203,0.286,0.488,-0.277,0.535,0.138,-0.242,-1.161,0.285
'0:00.980',-0.295,-3.151,-2.856,1.723,1.28,-3.003,0.203,0.28,0.482,-0.282,0.529,0.134,-0.248,-1.165,0.288
'0:00.981',-0.304,-3.151,-2.847,1.728,1.271,-2.999,0.205,0.279,0.48,-0.283,0.528,0.133,-0.255,-1.159,0.286
'0:00.982',-0.313,-3.158,-2.845,1.736,1.266,-3.002,0.209,0.278,0.477,-0.285,0.525,0.13,-0.262,-1.162,0.286
'0:00.983',-0.315,-3.158,-2.842,1.736,1.264,-3.001,0.212,0.281,0.479,-0.283,0.525,0.129,-0.266,-1.159,0.285
'0:00.984',-0.32,-3.156,-2.837,1.738,1.258,-2.996,0.216,0.284,0.483,-0.282,0.524,0.128,-0.267,-1.159,0.281
'0:00.985',-0.322,-3.159,-2.837,1.74,1.258,-2.998,0.221,0.285,0.484,-0.282,0.523,0.126,-0.267,-1.161,0.279
'0:00.986',-0.321,-3.16,-2.839,1.74,1.259,-2.999,0.228,0.291,0.489,-0.278,0.524,0.126,-0.271,-1.163,0.271
'0:00.987',-0.324,-3.163,-2.84,1.744,1.258,-3.002,0.232,0.294,0.492,-0.279,0.522,0.123,-0.273,-1.171,0.267
'0:00.988',-0.324,-3.167,-2.843,1.746,1.26,-3.006,0.23,0.294,0.491,-0.28,0.522,0.123,-0.27,-1.169,0.271
'0:00.989',-0.324,-3.172,-2.849,1.748,1.262,-3.01,0.234,0.296,0.491,-0.28,0.521,0.122,-0.274,-1.175,0.268
'0:00.990',-0.327,-3.182,-2.856,1.754,1.264,-3.019,0.235,0.296,0.489,-0.282,0.517,0.117,-0.279,-1.188,0.266
'0:00.991',-0.327,-3.186,-2.86,1.756,1.266,-3.023,0.234,0.296,0.488,-0.284,0.515,0.116,-0.28,-1.191,0.266
'0:00.992',-0.327,-3.187,-2.86,1.756,1.266,-3.023,0.234,0.293,0.487,-0.284,0.515,0.117,-0.279,-1.192,0.267
'0:00.993',-0.328,-3.187,-2.859,1.758,1.266,-3.023,0.232,0.29,0.483,-0.286,0.512,0.116,-0.279,-1.19,0.271
'0:00.994',-0.33,-3.188,-2.859,1.759,1.264,-3.024,0.233,0.29,0.482,-0.284,0.511,0.115,-0.28,-1.19,0.27
'0:00.995',-0.33,-3.191,-2.861,1.76,1.265,-3.026,0.234,0.293,0.484,-0.283,0.512,0.115,-0.281,-1.197,0.269
'0:00.996',-0.333,-3.192,-2.86,1.762,1.264,-3.026,0.237,0.292,0.484,-0.286,0.51,0.113,-0.285,-1.197,0.267
'0:00.997',-0.338,-3.199,-2.861,1.768,1.262,-3.03,0.241,0.294,0.485,-0.284,0.51,0.111,-0.288,-1.198,0.262
'0:00.998',-0.338,-3.204,-2.866,1.77,1.264,-3.035,0.239,0.295,0.484,-0.286,0.509,0.11,-0.285,-1.206,0.261
'0:00.999',-0.335,-3.205,-2.87,1.77,1.268,-3.038,0.239,0.294,0.484,-0.289,0.507,0.107,-0.284,-1.211,0.261
'0:01.000',-0.336,-3.206,-2.869,1.771,1.266,-3.038,0.238,0.294,0.483,-0.289,0.505,0.105,-0.289,-1.212,0.26
'0:01.001',-0.338,-3.207,-2.869,1.772,1.266,-3.038,0.238,0.292,0.481,-0.291,0.503,0.102,-0.291,-1.212,0.26
'0:01.002',-0.338,-3.208,-2.872,1.773,1.266,-3.04,0.236,0.289,0.48,-0.294,0.502,0.102,-0.291,-1.212,0.261
'0:01.003',-0.338,-3.208,-2.87,1.773,1.266,-3.039,0.235,0.287,0.477,-0.296,0.502,0.102,-0.292,-1.208,0.264
'0:01.004',-0.339,-3.21,-2.871,1.774,1.266,-3.041,0.235,0.284,0.474,-0.298,0.499,0.099,-0.294,-1.21,0.268
'0:01.005',-0.337,-3.211,-2.874,1.774,1.269,-3.043,0.232,0.282,0.472,-0.302,0.495,0.099,-0.294,-1.212,0.27
'0:01.006',-0.338,-3.212,-2.874,1.774,1.268,-3.043,0.23,0.28,0.469,-0.303,0.496,0.099,-0.294,-1.212,0.27
'0:01.007',-0.341,-3.211,-2.87,1.776,1.264,-3.041,0.231,0.278,0.466,-0.305,0.494,0.099,-0.295,-1.212,0.271
'0:01.008',-0.341,-3.212,-2.872,1.776,1.266,-3.042,0.23,0.278,0.465,-0.307,0.495,0.099,-0.295,-1.21,0.273
'0:01.009',-0.342,-3.214,-2.872,1.778,1.264,-3.043,0.23,0.277,0.463,-0.308,0.494,0.098,-0.296,-1.21,0.271
'0:01.010',-0.343,-3.213,-2.87,1.778,1.264,-3.042,0.23,0.278,0.462,-0.307,0.493,0.097,-0.296,-1.209,0.27
'0:01.011',-0.344,-3.212,-2.868,1.778,1.262,-3.041,0.23,0.279,0.463,-0.306,0.495,0.098,-0.296,-1.208,0.27
'0:01.012',-0.346,-3.212,-2.866,1.78,1.26,-3.039,0.231,0.28,0.464,-0.307,0.496,0.099,-0.297,-1.206,0.269
'0:01.013',-0.35,-3.213,-2.863,1.782,1.256,-3.038,0.234,0.28,0.465,-0.307,0.496,0.098,-0.299,-1.204,0.267
'0:01.014',-0.352,-3.214,-2.861,1.783,1.254,-3.038,0.235,0.279,0.464,-0.305,0.495,0.096,-0.305,-1.205,0.264
'0:01.015',-0.351,-3.216,-2.865,1.784,1.257,-3.041,0.234,0.28,0.463,-0.307,0.493,0.097,-0.301,-1.208,0.264
'0:01.016',-0.352,-3.219,-2.867,1.786,1.258,-3.043,0.234,0.279,0.463,-0.308,0.494,0.098,-0.296,-1.208,0.266
'0:01.017',-0.351,-3.219,-2.868,1.786,1.258,-3.043,0.238,0.282,0.464,-0.305,0.494,0.097,-0.3,-1.209,0.263
'0:01.018',-0.351,-3.22,-2.869,1.786,1.259,-3.045,0.238,0.282,0.463,-0.306,0.492,0.096,-0.302,-1.21,0.261
'0:01.019',-0.35,-3.222,-2.871,1.786,1.26,-3.046,0.237,0.281,0.463,-0.307,0.492,0.095,-0.303,-1.211,0.261
'0:01.020',-0.352,-3.221,-2.869,1.786,1.258,-3.045,0.239,0.282,0.462,-0.309,0.49,0.093,-0.303,-1.21,0.26
'0:01.021',-0.352,-3.223,-2.87,1.788,1.258,-3.046,0.238,0.281,0.462,-0.309,0.488,0.091,-0.306,-1.21,0.259
'0:01.022',-0.352,-3.225,-2.873,1.789,1.26,-3.05,0.237,0.282,0.464,-0.304,0.49,0.092,-0.304,-1.216,0.258
'0:01.023',-0.354,-3.227,-2.873,1.79,1.259,-3.05,0.237,0.28,0.462,-0.303,0.489,0.091,-0.304,-1.216,0.258
'0:01.024',-0.353,-3.228,-2.874,1.79,1.26,-3.051,0.239,0.281,0.462,-0.302,0.488,0.09,-0.309,-1.214,0.256
'0:01.025',-0.355,-3.228,-2.873,1.792,1.258,-3.05,0.24,0.283,0.463,-0.3,0.489,0.089,-0.311,-1.215,0.254
'0:01.026',-0.358,-3.232,-2.875,1.795,1.258,-3.054,0.24,0.281,0.463,-0.299,0.489,0.089,-0.307,-1.217,0.255
'0:01.027',-0.356,-3.231,-2.874,1.794,1.259,-3.053,0.24,0.281,0.464,-0.297,0.488,0.091,-0.307,-1.216,0.254
'0:01.028',-0.355,-3.23,-2.875,1.793,1.26,-3.053,0.241,0.282,0.464,-0.298,0.487,0.088,-0.309,-1.22,0.252
'0:01.029',-0.356,-3.232,-2.877,1.794,1.26,-3.055,0.24,0.283,0.462,-0.3,0.488,0.087,-0.31,-1.226,0.252
'0:01.030',-0.354,-3.228,-2.874,1.792,1.26,-3.051,0.242,0.287,0.466,-0.299,0.49,0.09,-0.311,-1.218,0.25
'0:01.031',-0.353,-3.228,-2.874,1.79,1.26,-3.051,0.244,0.287,0.466,-0.3,0.491,0.09,-0.31,-1.216,0.249
'0:01.032',-0.352,-3.227,-2.875,1.79,1.261,-3.051,0.242,0.285,0.464,-0.302,0.491,0.088,-0.311,-1.216,0.249
'0:01.033',-0.352,-3.227,-2.874,1.79,1.261,-3.051,0.243,0.292,0.471,-0.298,0.493,0.089,-0.309,-1.216,0.249
'0:01.034',-0.352,-3.228,-2.876,1.79,1.262,-3.052,0.244,0.29,0.468,-0.301,0.491,0.088,-0.309,-1.217,0.248
'0:01.035',-0.352,-3.228,-2.876,1.79,1.262,-3.053,0.242,0.288,0.467,-0.301,0.49,0.086,-0.311,-1.218,0.248
'0:01.036',-0.353,-3.231,-2.877,1.792,1.262,-3.054,0.242,0.29,0.469,-0.299,0.491,0.087,-0.308,-1.221,0.247
'0:01.037',-0.356,-3.232,-2.877,1.794,1.26,-3.054,0.244,0.287,0.464,-0.301,0.491,0.086,-0.31,-1.22,0.247
'0:01.038',-0.357,-3.232,-2.876,1.794,1.259,-3.054,0.245,0.288,0.466,-0.301,0.491,0.086,-0.312,-1.22,0.247
'0:01.039',-0.357,-3.233,-2.876,1.796,1.26,-3.055,0.244,0.287,0.467,-0.3,0.49,0.084,-0.312,-1.22,0.246
'0:01.040',-0.358,-3.235,-2.877,1.796,1.258,-3.056,0.244,0.288,0.468,-0.298,0.49,0.084,-0.312,-1.222,0.247
'0:01.041',-0.359,-3.236,-2.877,1.797,1.259,-3.057,0.246,0.29,0.469,-0.297,0.49,0.084,-0.314,-1.223,0.246
'0:01.042',-0.361,-3.233,-2.872,1.796,1.256,-3.053,0.246,0.289,0.468,-0.299,0.488,0.083,-0.314,-1.22,0.245
'0:01.043',-0.358,-3.233,-2.875,1.796,1.258,-3.054,0.245,0.29,0.469,-0.298,0.488,0.085,-0.311,-1.221,0.246
'0:01.044',-0.357,-3.233,-2.876,1.795,1.259,-3.054,0.245,0.291,0.469,-0.297,0.489,0.084,-0.312,-1.22,0.246
'0:01.045',-0.358,-3.231,-2.873,1.794,1.257,-3.052,0.245,0.291,0.469,-0.299,0.489,0.083,-0.314,-1.218,0.248
'0:01.046',-0.36,-3.231,-2.87,1.796,1.255,-3.051,0.246,0.29,0.468,-0.299,0.488,0.083,-0.314,-1.217,0.246
'0:01.047',-0.363,-3.23,-2.867,1.796,1.252,-3.049,0.246,0.289,0.469,-0.298,0.488,0.083,-0.311,-1.215,0.245
'0:01.048',-0.362,-3.232,-2.869,1.797,1.253,-3.05,0.246,0.289,0.468,-0.299,0.488,0.083,-0.31,-1.218,0.245
'0:01.049',-0.364,-3.231,-2.866,1.798,1.25,-3.049,0.247,0.287,0.467,-0.301,0.486,0.082,-0.312,-1.22,0.244
'0:01.050',-0.366,-3.23,-2.864,1.798,1.248,-3.047,0.248,0.289,0.467,-0.301,0.487,0.083,-0.313,-1.218,0.243
'0:01.051',-0.368,-3.232,-2.864,1.8,1.248,-3.047,0.251,0.291,0.467,-0.3,0.488,0.083,-0.315,-1.218,0.242
'0:01.052',-0.367,-3.233,-2.865,1.8,1.248,-3.05,0.252,0.292,0.468,-0.3,0.488,0.081,-0.315,-1.217,0.239
'0:01.053',-0.369,-3.232,-2.864,1.801,1.247,-3.048,0.257,0.296,0.471,-0.297,0.49,0.082,-0.316,-1.217,0.235
'0:01.054',-0.372,-3.232,-2.86,1.802,1.244,-3.046,0.26,0.299,0.474,-0.3,0.486,0.079,-0.318,-1.216,0.233
'0:01.055',-0.373,-3.232,-2.859,1.802,1.243,-3.046,0.264,0.3,0.473,-0.303,0.482,0.074,-0.323,-1.214,0.228
'0:01.056',-0.379,-3.232,-2.854,1.806,1.238,-3.043,0.273,0.298,0.467,-0.308,0.476,0.07,-0.33,-1.213,0.225
'0:01.057',-0.385,-3.234,-2.849,1.809,1.232,-3.042,0.281,0.296,0.459,-0.323,0.466,0.064,-0.338,-1.214,0.222
'0:01.058',-0.392,-3.237,-2.845,1.815,1.226,-3.042,0.298,0.299,0.454,-0.333,0.454,0.055,-0.348,-1.217,0.215
'0:01.059',-0.399,-3.245,-2.846,1.822,1.223,-3.046,0.318,0.305,0.449,-0.343,0.442,0.045,-0.362,-1.222,0.206
'0:01.060',-0.408,-3.252,-2.843,1.829,1.217,-3.047,0.344,0.315,0.444,-0.355,0.425,0.033,-0.377,-1.228,0.193
'0:01.061',-0.422,-3.252,-2.83,1.837,1.204,-3.042,0.38,0.328,0.438,-0.37,0.408,0.021,-0.396,-1.229,0.174
'0:01.062',-0.433,-3.248,-2.815,1.841,1.19,-3.032,0.412,0.343,0.44,-0.38,0.4,0.013,-0.409,-1.226,0.153
'0:01.063',-0.442,-3.236,-2.794,1.839,1.176,-3.015,0.439,0.354,0.441,-0.385,0.396,0.009,-0.415,-1.212,0.134
'0:01.064',-0.45,-3.226,-2.776,1.838,1.163,-3.001,0.467,0.359,0.432,-0.399,0.386,0.002,-0.427,-1.201,0.116
'0:01.065',-0.463,-3.228,-2.767,1.845,1.152,-2.998,0.497,0.366,0.424,-0.417,0.37,-0.009,-0.444,-1.202,0.1
'0:01.066',-0.467,-3.23,-2.763,1.849,1.148,-2.997,0.529,0.39,0.43,-0.421,0.364,-0.012,-0.451,-1.208,0.081
'0:01.067',-0.471,-3.228,-2.756,1.849,1.142,-2.992,0.565,0.42,0.446,-0.417,0.364,-0.013,-0.452,-1.208,0.056
'0:01.068',-0.465,-3.211,-2.747,1.837,1.141,-2.978,0.587,0.457,0.476,-0.394,0.381,-0.004,-0.441,-1.196,0.03
'0:01.069',-0.444,-3.195,-2.751,1.819,1.153,-2.973,0.6,0.497,0.523,-0.347,0.418,0.019,-0.416,-1.19,0.005
'0:01.070',-0.422,-3.199,-2.776,1.81,1.177,-2.987,0.609,0.536,0.569,-0.302,0.451,0.04,-0.389,-1.198,-0.013
'0:01.071',-0.398,-3.204,-2.805,1.801,1.204,-3.005,0.624,0.583,0.617,-0.258,0.484,0.061,-0.358,-1.211,-0.032
'0:01.072',-0.374,-3.203,-2.829,1.788,1.227,-3.016,0.644,0.635,0.672,-0.206,0.525,0.086,-0.326,-1.223,-0.056
'0:01.073',-0.341,-3.2,-2.86,1.77,1.26,-3.03,0.667,0.718,0.763,-0.121,0.587,0.123,-0.278,-1.229,-0.091
'0:01.074',-0.298,-3.178,-2.88,1.738,1.29,-3.029,0.67,0.799,0.867,-0.014,0.669,0.174,-0.208,-1.219,-0.121
'0:01.075',-0.249,-3.155,-2.906,1.702,1.328,-3.031,0.639,0.849,0.95,0.083,0.749,0.228,-0.137,-1.213,-0.127
'0:01.076',-0.194,-3.142,-2.948,1.667,1.377,-3.045,0.608,0.915,1.053,0.197,0.84,0.289,-0.056,-1.215,-0.135
'0:01.077',-0.122,-3.113,-2.991,1.618,1.434,-3.052,0.577,1.01,1.194,0.349,0.965,0.369,0.051,-1.206,-0.155
'0:01.078',-0.045,-3.09,-3.044,1.567,1.499,-3.067,0.553,1.119,1.357,0.526,1.101,0.455,0.166,-1.201,-0.182
'0:01.079',0.028,-3.041,-3.068,1.506,1.548,-3.054,0.5,1.206,1.508,0.696,1.234,0.539,0.273,-1.175,-0.194
'0:01.080',0.095,-2.981,-3.075,1.443,1.585,-3.029,0.438,1.286,1.651,0.857,1.361,0.62,0.376,-1.139,-0.202
'0:01.081',0.166,-2.917,-3.083,1.375,1.624,-3,0.383,1.371,1.804,1.038,1.506,0.712,0.492,-1.099,-0.216
'0:01.082',0.237,-2.843,-3.081,1.303,1.659,-2.962,0.299,1.415,1.938,1.212,1.652,0.805,0.608,-1.05,-0.21
'0:01.083',0.302,-2.772,-3.075,1.236,1.688,-2.924,0.212,1.459,2.076,1.393,1.795,0.897,0.72,-1.001,-0.205
'0:01.084',0.365,-2.687,-3.052,1.161,1.708,-2.87,0.114,1.507,2.219,1.577,1.943,0.99,0.831,-0.938,-0.201
'0:01.085',0.43,-2.611,-3.041,1.091,1.735,-2.825,0.018,1.545,2.346,1.75,2.087,1.081,0.942,-0.884,-0.187
'0:01.086',0.49,-2.538,-3.028,1.024,1.759,-2.783,-0.057,1.563,2.463,1.923,2.225,1.168,1.048,-0.833,-0.173
'0:01.087',0.533,-2.47,-3.004,0.969,1.768,-2.737,-0.134,1.532,2.525,2.042,2.329,1.238,1.124,-0.777,-0.142
'0:01.088',0.572,-2.409,-2.981,0.919,1.776,-2.695,-0.218,1.494,2.57,2.139,2.418,1.298,1.195,-0.727,-0.103
'0:01.089',0.597,-2.353,-2.95,0.879,1.773,-2.651,-0.314,1.423,2.576,2.207,2.485,1.347,1.255,-0.683,-0.045
'0:01.090',0.636,-2.288,-2.925,0.827,1.78,-2.607,-0.447,1.351,2.595,2.288,2.566,1.407,1.334,-0.638,0.023
'0:01.091',0.68,-2.196,-2.876,0.758,1.778,-2.537,-0.607,1.256,2.613,2.381,2.662,1.476,1.423,-0.569,0.093
'0:01.092',0.706,-2.098,-2.803,0.696,1.754,-2.45,-0.765,1.113,2.578,2.433,2.736,1.538,1.494,-0.486,0.171
'0:01.093',0.732,-2.024,-2.755,0.646,1.743,-2.389,-0.87,1.058,2.625,2.536,2.828,1.601,1.568,-0.431,0.203
'0:01.094',0.728,-2.024,-2.751,0.648,1.739,-2.388,-0.905,1.032,2.651,2.584,2.856,1.609,1.579,-0.433,0.216
'0:01.095',0.691,-2.1,-2.791,0.706,1.74,-2.446,-0.919,0.962,2.591,2.53,2.796,1.558,1.525,-0.483,0.254
'0:01.096',0.645,-2.183,-2.828,0.769,1.736,-2.506,-0.957,0.865,2.532,2.489,2.743,1.511,1.472,-0.537,0.299
'0:01.097',0.593,-2.226,-2.818,0.817,1.705,-2.522,-0.988,0.749,2.423,2.398,2.672,1.464,1.409,-0.553,0.349
'0:01.098',0.538,-2.263,-2.801,0.863,1.669,-2.532,-0.974,0.666,2.324,2.289,2.582,1.406,1.332,-0.566,0.384
'0:01.099',0.491,-2.289,-2.78,0.899,1.635,-2.534,-0.946,0.61,2.25,2.206,2.503,1.355,1.26,-0.572,0.395
'0:01.100',0.442,-2.33,-2.772,0.945,1.607,-2.551,-0.901,0.562,2.155,2.084,2.395,1.286,1.172,-0.592,0.405
'0:01.101',0.382,-2.414,-2.796,1.016,1.589,-2.605,-0.83,0.543,2.059,1.916,2.223,1.176,1.049,-0.649,0.414
'0:01.102',0.312,-2.534,-2.846,1.111,1.579,-2.691,-0.738,0.522,1.921,1.677,1.994,1.038,0.897,-0.736,0.433
'0:01.103',0.235,-2.675,-2.91,1.22,1.573,-2.793,-0.632,0.513,1.773,1.419,1.752,0.885,0.73,-0.841,0.444
'0:01.104',0.152,-2.764,-2.916,1.306,1.534,-2.84,-0.536,0.462,1.581,1.157,1.532,0.75,0.574,-0.899,0.453
'0:01.105',0.073,-2.8,-2.873,1.364,1.473,-2.837,-0.475,0.356,1.323,0.853,1.324,0.64,0.437,-0.917,0.479
'0:01.106',-0.005,-2.834,-2.829,1.419,1.412,-2.832,-0.431,0.252,1.043,0.524,1.105,0.524,0.294,-0.933,0.511
'0:01.107',-0.057,-2.877,-2.82,1.467,1.381,-2.849,-0.396,0.184,0.835,0.287,0.949,0.438,0.193,-0.965,0.532
'0:01.108',-0.087,-2.929,-2.841,1.508,1.377,-2.885,-0.34,0.191,0.747,0.167,0.865,0.384,0.131,-1.008,0.52
'0:01.109',-0.119,-2.985,-2.865,1.552,1.373,-2.925,-0.265,0.19,0.636,0.025,0.775,0.329,0.06,-1.05,0.508
'0:01.110',-0.145,-3.043,-2.899,1.594,1.377,-2.971,-0.173,0.221,0.57,-0.081,0.709,0.287,0.002,-1.095,0.478
'0:01.111',-0.159,-3.084,-2.926,1.621,1.383,-3.006,-0.086,0.292,0.593,-0.096,0.691,0.269,-0.027,-1.125,0.434
'0:01.112',-0.167,-3.101,-2.934,1.634,1.383,-3.018,-0.033,0.334,0.622,-0.081,0.696,0.262,-0.04,-1.137,0.403
'0:01.113',-0.173,-3.105,-2.932,1.639,1.379,-3.018,0.015,0.383,0.684,-0.032,0.72,0.267,-0.041,-1.139,0.361
'0:01.114',-0.174,-3.107,-2.933,1.641,1.379,-3.02,0.056,0.433,0.75,0.021,0.747,0.274,-0.035,-1.143,0.319
'0:01.115',-0.177,-3.108,-2.931,1.643,1.377,-3.02,0.101,0.486,0.808,0.067,0.766,0.277,-0.036,-1.145,0.275
'0:01.116',-0.185,-3.103,-2.917,1.643,1.366,-3.01,0.138,0.524,0.853,0.101,0.781,0.28,-0.04,-1.142,0.238
'0:01.117',-0.193,-3.098,-2.905,1.645,1.356,-3.002,0.159,0.544,0.882,0.124,0.794,0.281,-0.042,-1.135,0.213
'0:01.118',-0.195,-3.092,-2.897,1.643,1.351,-2.995,0.182,0.57,0.912,0.147,0.807,0.286,-0.042,-1.125,0.189
'0:01.119',-0.198,-3.085,-2.887,1.641,1.345,-2.986,0.203,0.587,0.928,0.16,0.815,0.287,-0.043,-1.12,0.168
'0:01.120',-0.203,-3.077,-2.873,1.64,1.335,-2.975,0.215,0.598,0.941,0.169,0.821,0.288,-0.046,-1.115,0.153
'0:01.121',-0.207,-3.07,-2.863,1.639,1.327,-2.967,0.229,0.606,0.946,0.172,0.819,0.286,-0.051,-1.11,0.139
'0:01.122',-0.212,-3.071,-2.858,1.641,1.323,-2.965,0.242,0.61,0.943,0.165,0.812,0.282,-0.06,-1.109,0.13
'0:01.123',-0.221,-3.075,-2.854,1.649,1.317,-2.965,0.247,0.599,0.926,0.146,0.801,0.274,-0.072,-1.109,0.132
'0:01.124',-0.23,-3.08,-2.851,1.655,1.31,-2.966,0.248,0.58,0.901,0.121,0.782,0.263,-0.089,-1.109,0.137
'0:01.125',-0.235,-3.086,-2.85,1.661,1.307,-2.968,0.249,0.562,0.876,0.093,0.763,0.253,-0.1,-1.113,0.144
'0:01.126',-0.24,-3.088,-2.849,1.664,1.304,-2.969,0.25,0.547,0.853,0.07,0.748,0.242,-0.111,-1.116,0.151
'0:01.127',-0.247,-3.094,-2.846,1.671,1.3,-2.97,0.251,0.533,0.832,0.049,0.733,0.233,-0.125,-1.118,0.155
