'Elapsed time','i','ii','iii','avr','avl','avf','v1','v2','v3','v4','v5','v6','vx','vy','vz'
'hh:mm:ss.mmm','mV','mV','mV','mV','mV','mV','mV','mV','mV','mV','mV','mV','mV','mV','mV'
'0:00.000',-1.321,1.307,2.63,0.007,-1.976,1.968,-1.729,-1.492,-1.674,-1.913,-1.812,-1.665,-0.201,1.814,0.134
'0:00.001',-1.318,1.308,2.627,0.005,-1.972,1.967,-1.73,-1.492,-1.675,-1.913,-1.813,-1.669,-0.201,1.82,0.135
'0:00.002',-1.321,1.312,2.633,0.004,-1.977,1.972,-1.722,-1.49,-1.671,-1.909,-1.81,-1.663,-0.202,1.823,0.135
'0:00.003',-1.322,1.31,2.632,0.006,-1.977,1.971,-1.722,-1.493,-1.673,-1.911,-1.81,-1.665,-0.203,1.819,0.131
'0:00.004',-1.322,1.312,2.635,0.004,-1.978,1.974,-1.723,-1.49,-1.668,-1.908,-1.811,-1.663,-0.2,1.822,0.134
'0:00.005',-1.319,1.317,2.637,0.001,-1.978,1.977,-1.723,-1.486,-1.665,-1.905,-1.809,-1.659,-0.199,1.82,0.132
'0:00.006',-1.314,1.316,2.631,-0.001,-1.972,1.973,-1.728,-1.493,-1.671,-1.911,-1.812,-1.665,-0.2,1.817,0.134
'0:00.007',-1.305,1.319,2.624,-0.007,-1.964,1.972,-1.732,-1.492,-1.667,-1.905,-1.808,-1.66,-0.191,1.815,0.134
'0:00.008',-1.294,1.325,2.619,-0.015,-1.957,1.972,-1.734,-1.493,-1.665,-1.901,-1.8,-1.656,-0.19,1.819,0.125
'0:00.009',-1.296,1.327,2.623,-0.015,-1.96,1.975,-1.732,-1.495,-1.667,-1.907,-1.806,-1.661,-0.195,1.822,0.123
'0:00.010',-1.31,1.319,2.629,-0.004,-1.97,1.974,-1.732,-1.494,-1.669,-1.905,-1.808,-1.661,-0.194,1.819,0.126
'0:00.011',-1.316,1.318,2.635,-0.001,-1.976,1.976,-1.73,-1.492,-1.667,-1.904,-1.809,-1.659,-0.191,1.821,0.132
'0:00.012',-1.321,1.323,2.644,-0.001,-1.982,1.984,-1.728,-1.491,-1.665,-1.903,-1.809,-1.659,-0.195,1.821,0.124
'0:00.013',-1.317,1.321,2.639,-0.002,-1.978,1.98,-1.734,-1.492,-1.665,-1.901,-1.808,-1.661,-0.196,1.829,0.125
'0:00.014',-1.31,1.323,2.634,-0.006,-1.972,1.978,-1.74,-1.494,-1.667,-1.901,-1.811,-1.661,-0.194,1.829,0.131
'0:00.015',-1.315,1.32,2.635,-0.003,-1.976,1.978,-1.742,-1.498,-1.669,-1.903,-1.809,-1.661,-0.195,1.827,0.131
'0:00.016',-1.314,1.323,2.638,-0.004,-1.976,1.98,-1.737,-1.491,-1.663,-1.895,-1.796,-1.651,-0.179,1.831,0.135
'0:00.017',-1.308,1.331,2.639,-0.012,-1.974,1.986,-1.74,-1.488,-1.658,-1.885,-1.796,-1.645,-0.174,1.831,0.133
'0:00.018',-1.306,1.333,2.639,-0.013,-1.973,1.986,-1.744,-1.49,-1.66,-1.889,-1.802,-1.647,-0.18,1.829,0.133
'0:00.019',-1.305,1.337,2.643,-0.016,-1.974,1.99,-1.741,-1.489,-1.658,-1.887,-1.798,-1.643,-0.175,1.833,0.133
'0:00.020',-1.299,1.342,2.642,-0.021,-1.97,1.992,-1.741,-1.489,-1.659,-1.887,-1.792,-1.641,-0.17,1.841,0.137
'0:00.021',-1.3,1.344,2.643,-0.022,-1.972,1.994,-1.744,-1.49,-1.657,-1.885,-1.792,-1.641,-0.171,1.844,0.135
'0:00.022',-1.3,1.345,2.647,-0.022,-1.974,1.996,-1.746,-1.492,-1.654,-1.881,-1.79,-1.636,-0.168,1.851,0.133
'0:00.023',-1.29,1.355,2.645,-0.032,-1.968,2,-1.743,-1.49,-1.655,-1.88,-1.792,-1.637,-0.168,1.859,0.132
'0:00.024',-1.282,1.362,2.644,-0.04,-1.963,2.003,-1.744,-1.487,-1.651,-1.875,-1.786,-1.633,-0.164,1.86,0.13
'0:00.025',-1.277,1.362,2.639,-0.043,-1.958,2.001,-1.748,-1.486,-1.647,-1.871,-1.782,-1.629,-0.159,1.847,0.128
'0:00.026',-1.277,1.361,2.639,-0.042,-1.958,2,-1.75,-1.486,-1.648,-1.873,-1.786,-1.633,-0.161,1.846,0.128
'0:00.027',-1.286,1.36,2.646,-0.037,-1.966,2.003,-1.747,-1.487,-1.647,-1.873,-1.786,-1.632,-0.164,1.853,0.127
'0:00.028',-1.288,1.365,2.652,-0.038,-1.97,2.009,-1.748,-1.484,-1.643,-1.867,-1.778,-1.622,-0.159,1.849,0.124
'0:00.029',-1.286,1.367,2.653,-0.04,-1.969,2.01,-1.752,-1.486,-1.645,-1.867,-1.776,-1.622,-0.153,1.852,0.127
'0:00.030',-1.283,1.367,2.651,-0.042,-1.966,2.009,-1.754,-1.49,-1.647,-1.869,-1.782,-1.626,-0.153,1.848,0.127
'0:00.031',-1.278,1.373,2.651,-0.048,-1.964,2.011,-1.756,-1.488,-1.645,-1.865,-1.774,-1.617,-0.147,1.852,0.126
'0:00.032',-1.278,1.373,2.652,-0.048,-1.965,2.013,-1.754,-1.484,-1.641,-1.86,-1.766,-1.611,-0.143,1.863,0.127
'0:00.033',-1.278,1.379,2.658,-0.05,-1.968,2.018,-1.754,-1.478,-1.631,-1.849,-1.758,-1.599,-0.138,1.869,0.121
'0:00.034',-1.27,1.384,2.655,-0.057,-1.962,2.019,-1.754,-1.48,-1.631,-1.847,-1.754,-1.598,-0.139,1.868,0.117
'0:00.035',-1.258,1.389,2.648,-0.066,-1.953,2.018,-1.756,-1.48,-1.631,-1.845,-1.754,-1.599,-0.133,1.865,0.12
'0:00.036',-1.251,1.397,2.649,-0.073,-1.95,2.023,-1.76,-1.478,-1.627,-1.84,-1.75,-1.594,-0.128,1.87,0.12
'0:00.037',-1.254,1.397,2.651,-0.071,-1.952,2.023,-1.762,-1.482,-1.629,-1.843,-1.748,-1.592,-0.128,1.872,0.121
'0:00.038',-1.254,1.399,2.654,-0.072,-1.954,2.026,-1.764,-1.48,-1.625,-1.835,-1.742,-1.583,-0.116,1.877,0.124
'0:00.039',-1.25,1.399,2.65,-0.075,-1.95,2.025,-1.767,-1.476,-1.623,-1.833,-1.738,-1.58,-0.114,1.876,0.126
'0:00.040',-1.248,1.399,2.647,-0.074,-1.948,2.023,-1.772,-1.479,-1.625,-1.836,-1.732,-1.579,-0.116,1.869,0.126
'0:00.041',-1.248,1.401,2.649,-0.076,-1.948,2.025,-1.77,-1.477,-1.618,-1.827,-1.729,-1.571,-0.108,1.869,0.127
'0:00.042',-1.248,1.403,2.651,-0.077,-1.949,2.026,-1.773,-1.479,-1.617,-1.825,-1.728,-1.571,-0.101,1.875,0.13
'0:00.043',-1.242,1.412,2.655,-0.085,-1.948,2.034,-1.78,-1.484,-1.621,-1.829,-1.728,-1.573,-0.102,1.889,0.129
'0:00.044',-1.237,1.42,2.658,-0.091,-1.947,2.039,-1.78,-1.48,-1.617,-1.824,-1.728,-1.571,-0.104,1.898,0.128
'0:00.045',-1.234,1.421,2.655,-0.093,-1.945,2.038,-1.78,-1.477,-1.615,-1.82,-1.724,-1.567,-0.098,1.893,0.13
'0:00.046',-1.235,1.422,2.658,-0.093,-1.946,2.04,-1.786,-1.48,-1.617,-1.821,-1.72,-1.567,-0.095,1.891,0.132
'0:00.047',-1.24,1.421,2.662,-0.09,-1.951,2.042,-1.786,-1.484,-1.619,-1.823,-1.72,-1.568,-0.095,1.899,0.128
'0:00.048',-1.236,1.423,2.659,-0.093,-1.947,2.041,-1.792,-1.484,-1.619,-1.822,-1.717,-1.562,-0.09,1.903,0.128
'0:00.049',-1.23,1.429,2.659,-0.1,-1.944,2.043,-1.792,-1.482,-1.615,-1.82,-1.714,-1.558,-0.085,1.901,0.128
'0:00.050',-1.224,1.44,2.665,-0.108,-1.944,2.053,-1.788,-1.479,-1.607,-1.81,-1.706,-1.548,-0.078,1.905,0.123
'0:00.051',-1.226,1.447,2.673,-0.111,-1.949,2.06,-1.79,-1.478,-1.607,-1.806,-1.704,-1.542,-0.079,1.911,0.122
'0:00.052',-1.224,1.444,2.669,-0.11,-1.947,2.057,-1.794,-1.483,-1.617,-1.817,-1.71,-1.55,-0.082,1.903,0.123
'0:00.053',-1.212,1.449,2.662,-0.118,-1.937,2.055,-1.802,-1.482,-1.609,-1.803,-1.7,-1.536,-0.062,1.911,0.124
'0:00.054',-1.202,1.466,2.668,-0.132,-1.935,2.067,-1.8,-1.47,-1.597,-1.788,-1.685,-1.52,-0.049,1.925,0.123
'0:00.055',-1.2,1.477,2.677,-0.139,-1.938,2.077,-1.794,-1.468,-1.593,-1.784,-1.681,-1.514,-0.049,1.921,0.12
'0:00.056',-1.212,1.468,2.68,-0.128,-1.946,2.074,-1.798,-1.475,-1.595,-1.784,-1.681,-1.512,-0.046,1.915,0.118
'0:00.057',-1.216,1.464,2.681,-0.123,-1.948,2.072,-1.801,-1.477,-1.6,-1.787,-1.683,-1.514,-0.05,1.917,0.117
'0:00.058',-1.208,1.468,2.677,-0.13,-1.943,2.072,-1.806,-1.475,-1.599,-1.782,-1.678,-1.509,-0.043,1.917,0.122
'0:00.059',-1.208,1.468,2.676,-0.13,-1.942,2.072,-1.808,-1.477,-1.597,-1.777,-1.676,-1.504,-0.037,1.923,0.127
'0:00.060',-1.218,1.47,2.689,-0.126,-1.954,2.079,-1.802,-1.475,-1.592,-1.772,-1.673,-1.499,-0.035,1.933,0.124
'0:00.061',-1.218,1.474,2.692,-0.128,-1.956,2.083,-1.804,-1.476,-1.593,-1.771,-1.667,-1.494,-0.033,1.942,0.121
'0:00.062',-1.206,1.478,2.684,-0.136,-1.946,2.082,-1.815,-1.482,-1.599,-1.776,-1.671,-1.502,-0.035,1.948,0.126
'0:00.063',-1.205,1.48,2.686,-0.138,-1.946,2.083,-1.817,-1.481,-1.6,-1.778,-1.675,-1.505,-0.035,1.947,0.13
'0:00.064',-1.206,1.486,2.693,-0.14,-1.95,2.09,-1.817,-1.482,-1.598,-1.774,-1.67,-1.498,-0.027,1.948,0.13
'0:00.065',-1.204,1.486,2.69,-0.141,-1.947,2.088,-1.821,-1.486,-1.598,-1.772,-1.665,-1.495,-0.018,1.952,0.131
'0:00.066',-1.206,1.488,2.694,-0.141,-1.95,2.091,-1.823,-1.486,-1.595,-1.767,-1.663,-1.492,-0.021,1.956,0.122
'0:00.067',-1.21,1.491,2.702,-0.141,-1.956,2.096,-1.821,-1.484,-1.596,-1.769,-1.667,-1.496,-0.032,1.966,0.118
'0:00.068',-1.208,1.486,2.696,-0.139,-1.952,2.091,-1.829,-1.49,-1.604,-1.777,-1.67,-1.502,-0.035,1.964,0.123
'0:00.069',-1.198,1.499,2.698,-0.15,-1.948,2.099,-1.833,-1.488,-1.597,-1.767,-1.659,-1.492,-0.025,1.954,0.119
'0:00.070',-1.192,1.51,2.703,-0.159,-1.948,2.106,-1.827,-1.48,-1.591,-1.762,-1.653,-1.486,-0.015,1.958,0.121
'0:00.071',-1.199,1.514,2.713,-0.158,-1.956,2.113,-1.829,-1.482,-1.588,-1.758,-1.653,-1.482,-0.015,1.968,0.119
'0:00.072',-1.199,1.517,2.716,-0.159,-1.958,2.116,-1.829,-1.479,-1.589,-1.756,-1.652,-1.482,-0.016,1.973,0.116
'0:00.073',-1.181,1.524,2.705,-0.172,-1.943,2.115,-1.833,-1.482,-1.593,-1.759,-1.652,-1.484,-0.013,1.971,0.119
'0:00.074',-1.185,1.527,2.712,-0.171,-1.949,2.119,-1.837,-1.486,-1.589,-1.754,-1.645,-1.479,-0.009,1.972,0.121
'0:00.075',-1.2,1.52,2.72,-0.161,-1.96,2.12,-1.837,-1.488,-1.591,-1.756,-1.645,-1.48,-0.011,1.98,0.124
'0:00.076',-1.198,1.525,2.724,-0.164,-1.96,2.124,-1.835,-1.488,-1.589,-1.753,-1.644,-1.477,-0.011,1.986,0.124
'0:00.077',-1.181,1.538,2.72,-0.179,-1.95,2.13,-1.834,-1.487,-1.588,-1.752,-1.64,-1.471,-0.005,1.984,0.126
'0:00.078',-1.172,1.547,2.72,-0.188,-1.946,2.134,-1.839,-1.488,-1.591,-1.752,-1.639,-1.472,-0.007,1.984,0.123
'0:00.079',-1.175,1.552,2.727,-0.189,-1.95,2.139,-1.842,-1.489,-1.589,-1.748,-1.633,-1.465,-0.001,1.987,0.12
'0:00.080',-1.171,1.556,2.728,-0.193,-1.949,2.142,-1.841,-1.49,-1.587,-1.742,-1.627,-1.458,0.009,1.997,0.12
'0:00.081',-1.178,1.552,2.731,-0.188,-1.954,2.142,-1.845,-1.492,-1.587,-1.739,-1.627,-1.454,0.01,2.002,0.121
'0:00.082',-1.18,1.552,2.732,-0.185,-1.956,2.142,-1.849,-1.493,-1.586,-1.736,-1.629,-1.454,0.007,2.002,0.123
'0:00.083',-1.173,1.56,2.732,-0.194,-1.952,2.146,-1.845,-1.488,-1.583,-1.729,-1.623,-1.448,0.013,2.006,0.123
'0:00.084',-1.167,1.565,2.732,-0.199,-1.95,2.148,-1.845,-1.49,-1.583,-1.732,-1.631,-1.454,0.01,2.01,0.123
'0:00.085',-1.173,1.567,2.74,-0.197,-1.956,2.153,-1.843,-1.49,-1.583,-1.732,-1.631,-1.456,0.002,2.019,0.119
'0:00.086',-1.164,1.575,2.74,-0.205,-1.952,2.158,-1.845,-1.489,-1.582,-1.73,-1.623,-1.454,0.009,2.013,0.121
'0:00.087',-1.157,1.58,2.737,-0.211,-1.948,2.159,-1.849,-1.492,-1.583,-1.732,-1.623,-1.456,0.015,2.012,0.125
'0:00.088',-1.158,1.583,2.742,-0.212,-1.95,2.163,-1.845,-1.49,-1.581,-1.73,-1.617,-1.45,0.017,2.019,0.121
'0:00.089',-1.146,1.589,2.736,-0.221,-1.941,2.162,-1.849,-1.492,-1.583,-1.732,-1.619,-1.452,0.016,2.023,0.121
'0:00.090',-1.145,1.593,2.739,-0.223,-1.942,2.166,-1.845,-1.492,-1.585,-1.734,-1.621,-1.455,0.009,2.022,0.118
'0:00.091',-1.152,1.599,2.752,-0.223,-1.952,2.175,-1.841,-1.487,-1.578,-1.727,-1.613,-1.446,0.011,2.02,0.115
'0:00.092',-1.153,1.601,2.754,-0.224,-1.954,2.178,-1.841,-1.486,-1.579,-1.726,-1.612,-1.444,0.013,2.022,0.116
'0:00.093',-1.148,1.601,2.749,-0.226,-1.948,2.175,-1.847,-1.489,-1.578,-1.726,-1.613,-1.444,0.019,2.019,0.117
'0:00.094',-1.153,1.601,2.755,-0.223,-1.954,2.178,-1.851,-1.49,-1.576,-1.72,-1.607,-1.435,0.024,2.025,0.116
'0:00.095',-1.153,1.601,2.755,-0.224,-1.954,2.179,-1.844,-1.489,-1.579,-1.724,-1.607,-1.435,0.021,2.03,0.117
'0:00.096',-1.147,1.6,2.748,-0.226,-1.948,2.174,-1.845,-1.49,-1.578,-1.722,-1.608,-1.433,0.021,2.025,0.119
'0:00.097',-1.149,1.607,2.757,-0.229,-1.954,2.183,-1.841,-1.489,-1.576,-1.72,-1.609,-1.432,0.021,2.027,0.115
'0:00.098',-1.149,1.609,2.759,-0.229,-1.954,2.183,-1.837,-1.485,-1.575,-1.722,-1.611,-1.438,0.024,2.026,0.111
'0:00.099',-1.151,1.601,2.752,-0.225,-1.952,2.176,-1.841,-1.486,-1.576,-1.724,-1.613,-1.437,0.027,2.022,0.117
'0:00.100',-1.145,1.607,2.752,-0.23,-1.948,2.179,-1.841,-1.488,-1.575,-1.719,-1.608,-1.431,0.029,2.021,0.117
'0:00.101',-1.142,1.605,2.748,-0.231,-1.944,2.176,-1.833,-1.483,-1.571,-1.714,-1.605,-1.429,0.032,2.022,0.116
'0:00.102',-1.153,1.599,2.752,-0.223,-1.953,2.176,-1.829,-1.481,-1.571,-1.72,-1.613,-1.437,0.019,2.029,0.115
'0:00.103',-1.157,1.599,2.757,-0.221,-1.956,2.178,-1.829,-1.483,-1.572,-1.724,-1.619,-1.444,0.011,2.027,0.112
'0:00.104',-1.155,1.602,2.759,-0.223,-1.957,2.18,-1.825,-1.481,-1.571,-1.726,-1.621,-1.446,0.009,2.033,0.108
'0:00.105',-1.157,1.599,2.756,-0.221,-1.956,2.178,-1.825,-1.482,-1.573,-1.729,-1.623,-1.449,0.004,2.031,0.108
'0:00.106',-1.158,1.594,2.752,-0.217,-1.955,2.173,-1.822,-1.481,-1.575,-1.733,-1.627,-1.454,0.007,2.025,0.117
'0:00.107',-1.166,1.593,2.76,-0.213,-1.962,2.176,-1.82,-1.482,-1.578,-1.739,-1.633,-1.461,-0.005,2.022,0.115
'0:00.108',-1.161,1.595,2.756,-0.217,-1.958,2.176,-1.819,-1.484,-1.58,-1.744,-1.635,-1.464,-0.011,2.011,0.112
'0:00.109',-1.161,1.593,2.754,-0.215,-1.958,2.174,-1.81,-1.479,-1.577,-1.745,-1.638,-1.464,-0.01,2.011,0.111
'0:00.110',-1.166,1.587,2.752,-0.21,-1.96,2.17,-1.808,-1.482,-1.585,-1.755,-1.648,-1.477,-0.024,2.013,0.111
'0:00.111',-1.17,1.581,2.752,-0.205,-1.96,2.166,-1.808,-1.482,-1.589,-1.762,-1.655,-1.484,-0.027,2.014,0.115
'0:00.112',-1.179,1.57,2.749,-0.196,-1.964,2.16,-1.806,-1.482,-1.59,-1.766,-1.663,-1.49,-0.03,2.018,0.116
'0:00.113',-1.181,1.567,2.749,-0.193,-1.966,2.159,-1.8,-1.482,-1.594,-1.772,-1.666,-1.495,-0.04,2.014,0.113
'0:00.114',-1.19,1.565,2.756,-0.188,-1.973,2.16,-1.796,-1.48,-1.59,-1.769,-1.665,-1.494,-0.043,2.006,0.11
'0:00.115',-1.194,1.56,2.755,-0.183,-1.974,2.158,-1.789,-1.479,-1.591,-1.773,-1.671,-1.5,-0.048,1.998,0.113
'0:00.116',-1.198,1.552,2.751,-0.177,-1.974,2.151,-1.784,-1.479,-1.593,-1.777,-1.675,-1.506,-0.053,1.995,0.112
'0:00.117',-1.208,1.54,2.748,-0.167,-1.978,2.144,-1.786,-1.48,-1.597,-1.782,-1.677,-1.51,-0.057,1.99,0.108
'0:00.118',-1.21,1.535,2.745,-0.163,-1.978,2.14,-1.78,-1.481,-1.6,-1.788,-1.683,-1.517,-0.065,1.988,0.111
'0:00.119',-1.206,1.53,2.736,-0.162,-1.971,2.133,-1.782,-1.489,-1.605,-1.798,-1.697,-1.53,-0.072,1.984,0.112
'0:00.120',-1.21,1.522,2.733,-0.156,-1.972,2.127,-1.778,-1.487,-1.609,-1.804,-1.703,-1.537,-0.079,1.97,0.108
'0:00.121',-1.227,1.516,2.743,-0.144,-1.985,2.129,-1.772,-1.48,-1.605,-1.8,-1.704,-1.536,-0.088,1.972,0.107
'0:00.122',-1.232,1.512,2.744,-0.14,-1.988,2.127,-1.763,-1.481,-1.607,-1.804,-1.714,-1.546,-0.096,1.972,0.111
'0:00.123',-1.232,1.506,2.739,-0.137,-1.986,2.122,-1.761,-1.485,-1.611,-1.81,-1.716,-1.554,-0.1,1.97,0.111
'0:00.124',-1.245,1.493,2.739,-0.124,-1.992,2.115,-1.768,-1.488,-1.619,-1.819,-1.726,-1.564,-0.11,1.964,0.114
'0:00.125',-1.252,1.483,2.736,-0.116,-1.994,2.11,-1.758,-1.494,-1.627,-1.829,-1.735,-1.576,-0.12,1.954,0.116
'0:00.126',-1.25,1.48,2.729,-0.115,-1.99,2.104,-1.755,-1.496,-1.633,-1.838,-1.744,-1.587,-0.13,1.958,0.116
'0:00.127',-1.256,1.472,2.728,-0.108,-1.992,2.1,-1.752,-1.494,-1.633,-1.84,-1.75,-1.589,-0.134,1.958,0.116
'0:00.128',-1.251,1.471,2.723,-0.11,-1.986,2.096,-1.752,-1.496,-1.635,-1.843,-1.754,-1.593,-0.134,1.949,0.115
'0:00.129',-1.242,1.463,2.705,-0.111,-1.974,2.084,-1.756,-1.508,-1.649,-1.863,-1.77,-1.612,-0.145,1.938,0.118
'0:00.130',-1.254,1.457,2.711,-0.102,-1.982,2.084,-1.746,-1.508,-1.651,-1.868,-1.774,-1.617,-0.153,1.931,0.112
'0:00.131',-1.266,1.453,2.72,-0.093,-1.992,2.086,-1.741,-1.5,-1.645,-1.862,-1.77,-1.613,-0.157,1.933,0.106
'0:00.132',-1.284,1.444,2.728,-0.08,-2.006,2.086,-1.734,-1.496,-1.641,-1.857,-1.772,-1.608,-0.153,1.933,0.107
'0:00.133',-1.29,1.44,2.731,-0.075,-2.01,2.085,-1.74,-1.5,-1.648,-1.869,-1.777,-1.619,-0.159,1.931,0.108
'0:00.134',-1.284,1.431,2.716,-0.074,-2,2.074,-1.744,-1.504,-1.655,-1.877,-1.783,-1.629,-0.164,1.923,0.111
'0:00.135',-1.279,1.43,2.709,-0.075,-1.994,2.07,-1.74,-1.508,-1.659,-1.879,-1.792,-1.632,-0.169,1.911,0.109
'0:00.136',-1.279,1.43,2.709,-0.075,-1.994,2.07,-1.741,-1.509,-1.663,-1.887,-1.796,-1.641,-0.182,1.909,0.11
'0:00.137',-1.288,1.423,2.712,-0.068,-2.001,2.068,-1.734,-1.508,-1.662,-1.887,-1.794,-1.638,-0.179,1.907,0.116
'0:00.138',-1.294,1.415,2.71,-0.06,-2.002,2.062,-1.734,-1.51,-1.664,-1.891,-1.8,-1.642,-0.182,1.905,0.119
'0:00.139',-1.3,1.403,2.703,-0.052,-2.002,2.053,-1.738,-1.514,-1.671,-1.898,-1.803,-1.649,-0.188,1.899,0.12
'0:00.140',-1.308,1.389,2.697,-0.04,-2.002,2.043,-1.738,-1.524,-1.679,-1.907,-1.807,-1.656,-0.191,1.889,0.123
'0:00.141',-1.315,1.383,2.699,-0.035,-2.007,2.042,-1.729,-1.521,-1.679,-1.909,-1.807,-1.657,-0.195,1.889,0.124
'0:00.142',-1.311,1.383,2.695,-0.036,-2.003,2.039,-1.724,-1.52,-1.681,-1.915,-1.817,-1.666,-0.202,1.889,0.128
'0:00.143',-1.305,1.385,2.691,-0.04,-1.998,2.038,-1.726,-1.52,-1.683,-1.921,-1.824,-1.674,-0.204,1.89,0.129
'0:00.144',-1.306,1.386,2.692,-0.04,-1.999,2.039,-1.73,-1.524,-1.685,-1.921,-1.823,-1.674,-0.206,1.883,0.128
'0:00.145',-1.31,1.387,2.698,-0.038,-2.004,2.042,-1.729,-1.522,-1.683,-1.921,-1.824,-1.673,-0.215,1.887,0.125
'0:00.146',-1.315,1.391,2.707,-0.037,-2.011,2.049,-1.726,-1.52,-1.683,-1.919,-1.82,-1.668,-0.211,1.889,0.126
'0:00.147',-1.309,1.385,2.695,-0.038,-2.002,2.039,-1.728,-1.528,-1.69,-1.929,-1.829,-1.681,-0.214,1.877,0.132
'0:00.148',-1.306,1.385,2.692,-0.04,-1.999,2.038,-1.718,-1.524,-1.688,-1.929,-1.828,-1.683,-0.22,1.881,0.128
'0:00.149',-1.316,1.38,2.696,-0.032,-2.006,2.038,-1.716,-1.522,-1.688,-1.925,-1.825,-1.679,-0.221,1.883,0.128
'0:00.150',-1.319,1.369,2.688,-0.025,-2.003,2.029,-1.723,-1.528,-1.694,-1.933,-1.833,-1.688,-0.231,1.869,0.128
'0:00.151',-1.321,1.367,2.688,-0.022,-2.005,2.027,-1.72,-1.528,-1.698,-1.938,-1.839,-1.694,-0.235,1.865,0.128
'0:00.152',-1.317,1.369,2.686,-0.025,-2.002,2.027,-1.719,-1.528,-1.7,-1.94,-1.838,-1.694,-0.234,1.867,0.132
'0:00.153',-1.323,1.362,2.685,-0.019,-2.003,2.023,-1.717,-1.532,-1.704,-1.942,-1.837,-1.694,-0.236,1.861,0.131
'0:00.154',-1.326,1.355,2.682,-0.015,-2.004,2.018,-1.721,-1.538,-1.708,-1.947,-1.843,-1.7,-0.24,1.857,0.13
'0:00.155',-1.317,1.353,2.671,-0.018,-1.994,2.013,-1.724,-1.538,-1.715,-1.954,-1.847,-1.704,-0.242,1.849,0.129
'0:00.156',-1.318,1.355,2.674,-0.018,-1.996,2.014,-1.723,-1.537,-1.713,-1.95,-1.843,-1.698,-0.236,1.851,0.131
'0:00.157',-1.317,1.359,2.677,-0.021,-1.997,2.018,-1.725,-1.536,-1.711,-1.95,-1.844,-1.699,-0.241,1.857,0.134
'0:00.158',-1.317,1.351,2.668,-0.017,-1.992,2.01,-1.725,-1.542,-1.718,-1.96,-1.852,-1.712,-0.251,1.848,0.135
'0:00.159',-1.315,1.349,2.664,-0.017,-1.99,2.006,-1.72,-1.542,-1.718,-1.963,-1.853,-1.714,-0.253,1.845,0.133
'0:00.160',-1.318,1.345,2.663,-0.014,-1.99,2.005,-1.72,-1.543,-1.72,-1.965,-1.847,-1.712,-0.252,1.838,0.136
'0:00.161',-1.323,1.34,2.664,-0.009,-1.994,2.002,-1.72,-1.548,-1.724,-1.97,-1.849,-1.714,-0.255,1.839,0.138
'0:00.162',-1.324,1.34,2.664,-0.008,-1.994,2.002,-1.713,-1.548,-1.728,-1.975,-1.857,-1.724,-0.266,1.841,0.135
'0:00.163',-1.323,1.341,2.665,-0.009,-1.994,2.003,-1.713,-1.545,-1.722,-1.968,-1.855,-1.72,-0.262,1.835,0.134
'0:00.164',-1.325,1.34,2.665,-0.008,-1.994,2.002,-1.714,-1.542,-1.718,-1.963,-1.852,-1.716,-0.259,1.829,0.134
'0:00.165',-1.312,1.347,2.659,-0.017,-1.986,2.003,-1.714,-1.537,-1.711,-1.954,-1.843,-1.707,-0.253,1.829,0.133
'0:00.166',-1.321,1.339,2.662,-0.009,-1.992,2.001,-1.718,-1.543,-1.714,-1.955,-1.845,-1.704,-0.25,1.835,0.137
'0:00.167',-1.337,1.325,2.662,0.006,-1.999,1.994,-1.722,-1.548,-1.722,-1.966,-1.857,-1.718,-0.262,1.834,0.144
'0:00.168',-1.321,1.339,2.66,-0.009,-1.99,2,-1.722,-1.546,-1.718,-1.963,-1.851,-1.716,-0.26,1.841,0.144
'0:00.169',-1.319,1.34,2.659,-0.011,-1.989,2,-1.72,-1.547,-1.722,-1.966,-1.855,-1.718,-0.257,1.835,0.147
'0:00.170',-1.324,1.339,2.663,-0.007,-1.994,2.001,-1.718,-1.545,-1.72,-1.96,-1.853,-1.71,-0.249,1.827,0.147
'0:00.171',-1.325,1.337,2.663,-0.005,-1.994,2,-1.718,-1.543,-1.718,-1.959,-1.853,-1.709,-0.247,1.831,0.144
'0:00.172',-1.328,1.329,2.657,0,-1.992,1.992,-1.723,-1.55,-1.728,-1.969,-1.86,-1.72,-0.259,1.826,0.148
'0:00.173',-1.327,1.335,2.663,-0.004,-1.994,1.998,-1.722,-1.55,-1.728,-1.968,-1.857,-1.718,-0.264,1.83,0.145
'0:00.174',-1.329,1.338,2.667,-0.004,-1.998,2.003,-1.72,-1.55,-1.726,-1.969,-1.855,-1.716,-0.264,1.829,0.14
'0:00.175',-1.323,1.347,2.671,-0.011,-1.997,2.009,-1.72,-1.548,-1.724,-1.968,-1.854,-1.715,-0.263,1.83,0.14
'0:00.176',-1.327,1.345,2.672,-0.009,-2,2.009,-1.718,-1.546,-1.723,-1.968,-1.861,-1.718,-0.266,1.829,0.143
'0:00.177',-1.33,1.339,2.67,-0.005,-2,2.005,-1.721,-1.548,-1.723,-1.968,-1.861,-1.718,-0.264,1.825,0.143
'0:00.178',-1.319,1.351,2.671,-0.016,-1.995,2.01,-1.714,-1.545,-1.718,-1.963,-1.853,-1.714,-0.262,1.837,0.134
'0:00.179',-1.315,1.351,2.667,-0.018,-1.99,2.009,-1.709,-1.546,-1.716,-1.962,-1.851,-1.712,-0.268,1.839,0.131
'0:00.180',-1.318,1.347,2.666,-0.015,-1.992,2.006,-1.71,-1.542,-1.716,-1.96,-1.845,-1.707,-0.268,1.832,0.127
'0:00.181',-1.322,1.349,2.671,-0.013,-1.996,2.01,-1.71,-1.543,-1.716,-1.963,-1.849,-1.709,-0.267,1.826,0.125
'0:00.182',-1.323,1.347,2.671,-0.012,-1.998,2.01,-1.712,-1.548,-1.721,-1.97,-1.854,-1.718,-0.271,1.828,0.129
'0:00.183',-1.328,1.342,2.671,-0.007,-2,2.006,-1.712,-1.548,-1.723,-1.97,-1.857,-1.72,-0.271,1.833,0.132
'0:00.184',-1.327,1.334,2.662,-0.004,-1.994,1.998,-1.714,-1.551,-1.727,-1.975,-1.865,-1.726,-0.279,1.828,0.137
'0:00.185',-1.32,1.339,2.659,-0.009,-1.99,1.999,-1.716,-1.555,-1.73,-1.98,-1.865,-1.729,-0.281,1.822,0.141
'0:00.186',-1.317,1.347,2.664,-0.015,-1.99,2.005,-1.712,-1.548,-1.722,-1.968,-1.855,-1.716,-0.265,1.828,0.14
'0:00.187',-1.319,1.347,2.667,-0.013,-1.993,2.007,-1.714,-1.547,-1.72,-1.966,-1.848,-1.714,-0.264,1.835,0.137
'0:00.188',-1.328,1.341,2.67,-0.006,-1.999,2.006,-1.718,-1.552,-1.728,-1.976,-1.851,-1.722,-0.273,1.831,0.136
'0:00.189',-1.335,1.337,2.674,-0.001,-2.005,2.006,-1.716,-1.551,-1.725,-1.977,-1.862,-1.727,-0.278,1.83,0.136
'0:00.190',-1.334,1.343,2.677,-0.004,-2.006,2.01,-1.715,-1.549,-1.722,-1.972,-1.861,-1.722,-0.275,1.835,0.137
'0:00.191',-1.321,1.349,2.671,-0.013,-1.996,2.01,-1.712,-1.546,-1.724,-1.975,-1.86,-1.724,-0.28,1.831,0.135
'0:00.192',-1.31,1.354,2.664,-0.022,-1.987,2.01,-1.717,-1.554,-1.728,-1.981,-1.864,-1.73,-0.286,1.826,0.138
'0:00.193',-1.312,1.353,2.664,-0.021,-1.988,2.009,-1.722,-1.557,-1.732,-1.982,-1.861,-1.728,-0.275,1.829,0.146
'0:00.194',-1.319,1.351,2.671,-0.015,-1.996,2.01,-1.716,-1.546,-1.724,-1.976,-1.855,-1.72,-0.272,1.833,0.147
'0:00.195',-1.32,1.357,2.679,-0.018,-2,2.018,-1.708,-1.54,-1.718,-1.967,-1.85,-1.712,-0.272,1.832,0.143
'0:00.196',-1.314,1.361,2.675,-0.023,-1.994,2.018,-1.716,-1.544,-1.72,-1.968,-1.855,-1.716,-0.273,1.824,0.144
'0:00.197',-1.308,1.363,2.671,-0.028,-1.99,2.017,-1.711,-1.546,-1.722,-1.972,-1.858,-1.723,-0.281,1.825,0.14
'0:00.198',-1.316,1.358,2.675,-0.021,-1.995,2.016,-1.706,-1.548,-1.724,-1.974,-1.859,-1.724,-0.285,1.829,0.138
'0:00.199',-1.327,1.353,2.679,-0.013,-2.003,2.015,-1.712,-1.552,-1.726,-1.977,-1.865,-1.726,-0.284,1.825,0.142
'0:00.200',-1.319,1.358,2.678,-0.019,-1.998,2.018,-1.704,-1.544,-1.722,-1.977,-1.859,-1.723,-0.283,1.828,0.143
'0:00.201',-1.31,1.371,2.681,-0.03,-1.996,2.026,-1.708,-1.542,-1.716,-1.972,-1.851,-1.715,-0.275,1.834,0.146
'0:00.202',-1.304,1.379,2.684,-0.037,-1.994,2.031,-1.714,-1.546,-1.718,-1.973,-1.851,-1.716,-0.275,1.832,0.143
'0:00.203',-1.31,1.376,2.686,-0.033,-1.998,2.031,-1.711,-1.546,-1.716,-1.97,-1.849,-1.715,-0.276,1.833,0.141
'0:00.204',-1.317,1.375,2.693,-0.029,-2.006,2.034,-1.704,-1.538,-1.708,-1.964,-1.847,-1.71,-0.273,1.841,0.144
'0:00.205',-1.317,1.371,2.689,-0.028,-2.003,2.03,-1.706,-1.543,-1.71,-1.968,-1.852,-1.712,-0.273,1.841,0.147
'0:00.206',-1.322,1.365,2.687,-0.021,-2.005,2.026,-1.714,-1.548,-1.713,-1.969,-1.85,-1.711,-0.268,1.839,0.15
'0:00.207',-1.325,1.363,2.689,-0.019,-2.007,2.026,-1.712,-1.548,-1.714,-1.97,-1.846,-1.71,-0.272,1.837,0.146
'0:00.208',-1.321,1.369,2.689,-0.024,-2.005,2.029,-1.706,-1.55,-1.711,-1.966,-1.842,-1.706,-0.273,1.833,0.144
'0:00.209',-1.321,1.369,2.691,-0.024,-2.006,2.03,-1.705,-1.544,-1.709,-1.964,-1.839,-1.702,-0.27,1.834,0.142
'0:00.210',-1.319,1.364,2.683,-0.023,-2.001,2.023,-1.706,-1.552,-1.722,-1.978,-1.853,-1.716,-0.282,1.827,0.141
'0:00.211',-1.315,1.371,2.687,-0.028,-2.001,2.029,-1.704,-1.547,-1.715,-1.972,-1.851,-1.712,-0.281,1.826,0.14
'0:00.212',-1.326,1.364,2.691,-0.019,-2.009,2.027,-1.704,-1.539,-1.709,-1.964,-1.846,-1.705,-0.27,1.829,0.14
'0:00.213',-1.334,1.355,2.689,-0.011,-2.011,2.022,-1.703,-1.547,-1.72,-1.976,-1.853,-1.714,-0.28,1.826,0.142
'0:00.214',-1.321,1.364,2.686,-0.021,-2.004,2.025,-1.701,-1.546,-1.717,-1.973,-1.849,-1.71,-0.281,1.829,0.141
'0:00.215',-1.306,1.369,2.675,-0.031,-1.991,2.022,-1.705,-1.544,-1.716,-1.972,-1.849,-1.712,-0.275,1.823,0.142
'0:00.216',-1.31,1.371,2.68,-0.03,-1.995,2.026,-1.705,-1.543,-1.714,-1.972,-1.847,-1.711,-0.274,1.827,0.144
'0:00.217',-1.31,1.376,2.687,-0.033,-1.998,2.031,-1.701,-1.541,-1.708,-1.966,-1.839,-1.702,-0.271,1.832,0.14
'0:00.218',-1.315,1.375,2.69,-0.03,-2.002,2.033,-1.699,-1.536,-1.704,-1.96,-1.837,-1.698,-0.269,1.833,0.139
'0:00.219',-1.324,1.369,2.694,-0.022,-2.009,2.031,-1.702,-1.537,-1.704,-1.962,-1.843,-1.703,-0.269,1.834,0.144
'0:00.220',-1.319,1.369,2.688,-0.025,-2.003,2.029,-1.702,-1.544,-1.711,-1.97,-1.851,-1.712,-0.278,1.831,0.143
'0:00.221',-1.312,1.367,2.679,-0.028,-1.996,2.023,-1.707,-1.546,-1.718,-1.978,-1.859,-1.722,-0.282,1.833,0.145
'0:00.222',-1.305,1.375,2.68,-0.035,-1.992,2.027,-1.71,-1.546,-1.712,-1.971,-1.851,-1.714,-0.273,1.837,0.145
'0:00.223',-1.302,1.383,2.685,-0.041,-1.993,2.034,-1.702,-1.538,-1.704,-1.964,-1.845,-1.702,-0.27,1.837,0.14
'0:00.224',-1.311,1.374,2.686,-0.032,-1.998,2.03,-1.7,-1.538,-1.707,-1.966,-1.849,-1.706,-0.272,1.836,0.141
'0:00.225',-1.31,1.374,2.684,-0.033,-1.996,2.029,-1.7,-1.538,-1.704,-1.964,-1.847,-1.707,-0.267,1.841,0.144
'0:00.226',-1.304,1.374,2.679,-0.035,-1.991,2.026,-1.706,-1.541,-1.71,-1.969,-1.851,-1.712,-0.269,1.833,0.143
'0:00.227',-1.305,1.371,2.677,-0.034,-1.991,2.024,-1.707,-1.545,-1.711,-1.972,-1.851,-1.714,-0.271,1.833,0.148
'0:00.228',-1.308,1.372,2.681,-0.032,-1.995,2.026,-1.7,-1.536,-1.703,-1.964,-1.848,-1.708,-0.265,1.834,0.148
'0:00.229',-1.309,1.372,2.682,-0.032,-1.996,2.027,-1.7,-1.535,-1.704,-1.964,-1.847,-1.708,-0.266,1.829,0.141
'0:00.230',-1.303,1.378,2.682,-0.037,-1.992,2.03,-1.7,-1.534,-1.702,-1.963,-1.845,-1.706,-0.266,1.833,0.139
'0:00.231',-1.302,1.382,2.684,-0.041,-1.992,2.033,-1.696,-1.53,-1.699,-1.957,-1.841,-1.7,-0.26,1.834,0.137
'0:00.232',-1.305,1.381,2.687,-0.038,-1.996,2.034,-1.696,-1.53,-1.699,-1.956,-1.843,-1.702,-0.264,1.836,0.137
'0:00.233',-1.304,1.378,2.682,-0.037,-1.993,2.03,-1.698,-1.53,-1.7,-1.958,-1.843,-1.704,-0.266,1.832,0.138
'0:00.234',-1.301,1.38,2.682,-0.04,-1.992,2.031,-1.698,-1.532,-1.702,-1.959,-1.841,-1.704,-0.264,1.831,0.137
'0:00.235',-1.3,1.381,2.682,-0.041,-1.991,2.031,-1.699,-1.536,-1.707,-1.968,-1.853,-1.718,-0.279,1.839,0.135
'0:00.236',-1.298,1.379,2.678,-0.041,-1.988,2.029,-1.7,-1.536,-1.712,-1.974,-1.855,-1.722,-0.279,1.837,0.136
'0:00.237',-1.3,1.376,2.676,-0.038,-1.988,2.026,-1.706,-1.54,-1.712,-1.975,-1.853,-1.72,-0.275,1.833,0.137
'0:00.238',-1.3,1.376,2.676,-0.038,-1.988,2.026,-1.698,-1.534,-1.708,-1.972,-1.855,-1.721,-0.276,1.827,0.134
'0:00.239',-1.302,1.377,2.679,-0.038,-1.99,2.029,-1.695,-1.531,-1.704,-1.967,-1.849,-1.716,-0.27,1.826,0.135
'0:00.240',-1.306,1.374,2.68,-0.035,-1.993,2.027,-1.7,-1.53,-1.704,-1.966,-1.847,-1.712,-0.265,1.829,0.135
'0:00.241',-1.313,1.369,2.682,-0.028,-1.998,2.025,-1.695,-1.528,-1.702,-1.965,-1.85,-1.71,-0.264,1.835,0.14
'0:00.242',-1.312,1.363,2.675,-0.026,-1.994,2.019,-1.702,-1.536,-1.707,-1.968,-1.85,-1.712,-0.265,1.841,0.144
'0:00.243',-1.304,1.367,2.672,-0.032,-1.988,2.02,-1.703,-1.533,-1.706,-1.966,-1.844,-1.708,-0.263,1.839,0.141
'0:00.244',-1.306,1.369,2.675,-0.031,-1.99,2.022,-1.7,-1.53,-1.701,-1.963,-1.849,-1.71,-0.265,1.833,0.14
'0:00.245',-1.31,1.367,2.679,-0.029,-1.994,2.023,-1.702,-1.531,-1.7,-1.957,-1.841,-1.702,-0.257,1.835,0.136
'0:00.246',-1.312,1.373,2.686,-0.03,-1.999,2.03,-1.698,-1.526,-1.692,-1.948,-1.831,-1.694,-0.257,1.837,0.131
'0:00.247',-1.315,1.371,2.687,-0.028,-2.001,2.029,-1.691,-1.52,-1.69,-1.949,-1.84,-1.698,-0.261,1.831,0.133
'0:00.248',-1.317,1.37,2.688,-0.026,-2.003,2.029,-1.69,-1.52,-1.691,-1.95,-1.843,-1.7,-0.263,1.836,0.132
'0:00.249',-1.308,1.378,2.686,-0.035,-1.996,2.032,-1.69,-1.518,-1.684,-1.942,-1.833,-1.692,-0.261,1.839,0.129
'0:00.250',-1.307,1.375,2.682,-0.034,-1.994,2.028,-1.687,-1.512,-1.681,-1.942,-1.831,-1.69,-0.257,1.827,0.129
'0:00.251',-1.312,1.366,2.678,-0.027,-1.995,2.022,-1.688,-1.516,-1.683,-1.942,-1.835,-1.692,-0.259,1.823,0.13
'0:00.252',-1.306,1.37,2.676,-0.032,-1.991,2.023,-1.687,-1.515,-1.684,-1.938,-1.829,-1.686,-0.262,1.827,0.128
'0:00.253',-1.302,1.379,2.681,-0.038,-1.992,2.03,-1.688,-1.514,-1.683,-1.938,-1.824,-1.685,-0.262,1.833,0.123
'0:00.254',-1.298,1.381,2.679,-0.042,-1.988,2.03,-1.694,-1.515,-1.683,-1.94,-1.829,-1.687,-0.259,1.833,0.129
'0:00.255',-1.302,1.379,2.68,-0.038,-1.991,2.03,-1.694,-1.515,-1.685,-1.939,-1.823,-1.684,-0.253,1.827,0.132
'0:00.256',-1.302,1.379,2.681,-0.039,-1.991,2.03,-1.69,-1.516,-1.687,-1.943,-1.829,-1.69,-0.26,1.829,0.129
'0:00.257',-1.298,1.379,2.677,-0.041,-1.987,2.027,-1.69,-1.514,-1.687,-1.946,-1.836,-1.694,-0.268,1.829,0.127
'0:00.258',-1.306,1.377,2.684,-0.035,-1.995,2.031,-1.691,-1.512,-1.681,-1.938,-1.827,-1.685,-0.261,1.83,0.124
'0:00.259',-1.298,1.377,2.675,-0.04,-1.987,2.026,-1.696,-1.516,-1.685,-1.944,-1.833,-1.692,-0.264,1.829,0.127
'0:00.260',-1.296,1.371,2.667,-0.037,-1.981,2.018,-1.699,-1.518,-1.687,-1.946,-1.838,-1.694,-0.264,1.831,0.132
'0:00.261',-1.312,1.357,2.671,-0.023,-1.991,2.014,-1.697,-1.516,-1.684,-1.94,-1.835,-1.689,-0.262,1.827,0.136
'0:00.262',-1.317,1.353,2.671,-0.018,-1.994,2.012,-1.692,-1.52,-1.689,-1.948,-1.841,-1.698,-0.274,1.823,0.135
'0:00.263',-1.31,1.36,2.671,-0.025,-1.991,2.015,-1.69,-1.518,-1.688,-1.948,-1.84,-1.696,-0.272,1.827,0.133
'0:00.264',-1.298,1.368,2.667,-0.035,-1.982,2.018,-1.69,-1.516,-1.685,-1.944,-1.834,-1.692,-0.264,1.828,0.134
'0:00.265',-1.296,1.371,2.667,-0.038,-1.982,2.019,-1.69,-1.518,-1.687,-1.944,-1.837,-1.694,-0.264,1.826,0.136
'0:00.266',-1.296,1.367,2.663,-0.035,-1.98,2.015,-1.696,-1.526,-1.696,-1.954,-1.845,-1.7,-0.266,1.823,0.137
'0:00.267',-1.292,1.371,2.663,-0.04,-1.978,2.017,-1.695,-1.52,-1.69,-1.949,-1.843,-1.695,-0.264,1.831,0.134
'0:00.268',-1.282,1.384,2.667,-0.051,-1.974,2.026,-1.685,-1.51,-1.681,-1.94,-1.835,-1.687,-0.264,1.828,0.129
'0:00.269',-1.277,1.385,2.663,-0.054,-1.97,2.023,-1.684,-1.514,-1.687,-1.947,-1.838,-1.695,-0.273,1.825,0.128
'0:00.270',-1.29,1.378,2.669,-0.043,-1.98,2.023,-1.683,-1.509,-1.683,-1.942,-1.837,-1.692,-0.269,1.825,0.127
'0:00.271',-1.299,1.371,2.67,-0.036,-1.984,2.02,-1.683,-1.508,-1.683,-1.942,-1.835,-1.69,-0.266,1.819,0.127
'0:00.272',-1.3,1.367,2.668,-0.034,-1.984,2.018,-1.691,-1.518,-1.69,-1.95,-1.839,-1.696,-0.274,1.825,0.128
'0:00.273',-1.298,1.372,2.671,-0.037,-1.984,2.022,-1.69,-1.514,-1.686,-1.945,-1.835,-1.691,-0.269,1.829,0.13
'0:00.274',-1.294,1.375,2.67,-0.041,-1.982,2.022,-1.685,-1.508,-1.683,-1.945,-1.833,-1.697,-0.268,1.823,0.131
'0:00.275',-1.303,1.369,2.672,-0.033,-1.988,2.021,-1.684,-1.51,-1.685,-1.948,-1.835,-1.698,-0.267,1.819,0.13
'0:00.276',-1.304,1.367,2.671,-0.032,-1.988,2.019,-1.688,-1.511,-1.689,-1.952,-1.839,-1.698,-0.271,1.825,0.13
'0:00.277',-1.297,1.368,2.665,-0.035,-1.981,2.017,-1.692,-1.514,-1.692,-1.958,-1.841,-1.705,-0.272,1.815,0.131
'0:00.278',-1.3,1.361,2.66,-0.03,-1.98,2.01,-1.691,-1.518,-1.696,-1.962,-1.845,-1.71,-0.272,1.81,0.131
'0:00.279',-1.295,1.367,2.662,-0.035,-1.978,2.014,-1.692,-1.52,-1.698,-1.962,-1.851,-1.713,-0.28,1.817,0.127
'0:00.280',-1.288,1.371,2.659,-0.042,-1.973,2.015,-1.694,-1.519,-1.694,-1.958,-1.847,-1.706,-0.271,1.817,0.128
'0:00.281',-1.292,1.368,2.66,-0.038,-1.976,2.014,-1.698,-1.518,-1.692,-1.95,-1.84,-1.696,-0.262,1.821,0.128
'0:00.282',-1.3,1.364,2.664,-0.033,-1.982,2.014,-1.7,-1.519,-1.691,-1.948,-1.841,-1.695,-0.264,1.815,0.125
'0:00.283',-1.302,1.361,2.663,-0.029,-1.983,2.012,-1.688,-1.511,-1.69,-1.95,-1.836,-1.696,-0.264,1.814,0.124
'0:00.284',-1.302,1.361,2.664,-0.029,-1.983,2.013,-1.684,-1.51,-1.69,-1.949,-1.837,-1.696,-0.267,1.814,0.126
'0:00.285',-1.299,1.368,2.667,-0.035,-1.983,2.018,-1.685,-1.508,-1.682,-1.939,-1.835,-1.687,-0.258,1.812,0.128
'0:00.286',-1.3,1.367,2.668,-0.034,-1.984,2.018,-1.687,-1.502,-1.673,-1.926,-1.825,-1.673,-0.245,1.815,0.128
'0:00.287',-1.293,1.367,2.66,-0.036,-1.976,2.013,-1.688,-1.51,-1.685,-1.942,-1.839,-1.694,-0.261,1.815,0.129
'0:00.288',-1.29,1.369,2.66,-0.04,-1.976,2.015,-1.684,-1.51,-1.69,-1.95,-1.843,-1.701,-0.269,1.819,0.128
'0:00.289',-1.298,1.364,2.663,-0.033,-1.98,2.014,-1.682,-1.508,-1.686,-1.946,-1.841,-1.696,-0.264,1.818,0.13
'0:00.290',-1.299,1.359,2.659,-0.03,-1.979,2.009,-1.683,-1.511,-1.692,-1.954,-1.849,-1.704,-0.268,1.818,0.127
'0:00.291',-1.294,1.365,2.66,-0.035,-1.977,2.013,-1.683,-1.507,-1.687,-1.95,-1.847,-1.698,-0.265,1.812,0.128
'0:00.292',-1.289,1.376,2.666,-0.043,-1.977,2.021,-1.679,-1.501,-1.681,-1.944,-1.843,-1.694,-0.264,1.808,0.128
'0:00.293',-1.294,1.373,2.667,-0.04,-1.98,2.02,-1.675,-1.5,-1.679,-1.944,-1.84,-1.693,-0.267,1.815,0.125
'0:00.294',-1.288,1.373,2.662,-0.043,-1.974,2.018,-1.675,-1.498,-1.679,-1.942,-1.837,-1.69,-0.264,1.822,0.125
'0:00.295',-1.286,1.373,2.659,-0.043,-1.973,2.017,-1.681,-1.496,-1.677,-1.936,-1.835,-1.686,-0.259,1.819,0.13
'0:00.296',-1.296,1.368,2.665,-0.035,-1.981,2.017,-1.679,-1.496,-1.677,-1.935,-1.833,-1.683,-0.257,1.815,0.136
'0:00.297',-1.292,1.371,2.663,-0.04,-1.978,2.018,-1.677,-1.499,-1.68,-1.94,-1.836,-1.688,-0.259,1.813,0.137
'0:00.298',-1.287,1.37,2.658,-0.042,-1.972,2.014,-1.685,-1.502,-1.683,-1.94,-1.833,-1.687,-0.256,1.812,0.139
'0:00.299',-1.284,1.375,2.659,-0.046,-1.972,2.018,-1.685,-1.504,-1.686,-1.939,-1.829,-1.683,-0.258,1.819,0.133
'0:00.300',-1.282,1.379,2.66,-0.049,-1.971,2.019,-1.68,-1.502,-1.686,-1.944,-1.837,-1.69,-0.267,1.819,0.129
'0:00.301',-1.288,1.369,2.658,-0.041,-1.974,2.014,-1.687,-1.506,-1.691,-1.948,-1.842,-1.698,-0.271,1.813,0.136
'0:00.302',-1.29,1.365,2.655,-0.038,-1.972,2.01,-1.687,-1.518,-1.699,-1.954,-1.845,-1.702,-0.276,1.812,0.136
'0:00.303',-1.281,1.368,2.65,-0.043,-1.966,2.009,-1.681,-1.515,-1.697,-1.952,-1.84,-1.698,-0.268,1.81,0.136
'0:00.304',-1.28,1.374,2.655,-0.046,-1.968,2.015,-1.679,-1.51,-1.693,-1.948,-1.835,-1.692,-0.267,1.81,0.131
'0:00.305',-1.283,1.381,2.664,-0.049,-1.974,2.022,-1.675,-1.504,-1.688,-1.942,-1.825,-1.681,-0.266,1.817,0.127
'0:00.306',-1.278,1.381,2.66,-0.051,-1.969,2.021,-1.674,-1.502,-1.688,-1.944,-1.829,-1.687,-0.26,1.816,0.132
'0:00.307',-1.272,1.382,2.655,-0.055,-1.964,2.018,-1.679,-1.512,-1.7,-1.956,-1.847,-1.703,-0.269,1.806,0.134
'0:00.308',-1.265,1.389,2.655,-0.062,-1.96,2.022,-1.679,-1.508,-1.694,-1.951,-1.841,-1.696,-0.267,1.809,0.132
'0:00.309',-1.269,1.389,2.658,-0.06,-1.964,2.023,-1.677,-1.506,-1.69,-1.944,-1.835,-1.691,-0.268,1.81,0.124
'0:00.310',-1.28,1.381,2.662,-0.051,-1.97,2.021,-1.678,-1.508,-1.692,-1.949,-1.836,-1.694,-0.269,1.803,0.122
'0:00.311',-1.28,1.381,2.663,-0.051,-1.972,2.022,-1.679,-1.505,-1.69,-1.947,-1.837,-1.693,-0.266,1.8,0.126
'0:00.312',-1.282,1.385,2.667,-0.051,-1.974,2.026,-1.675,-1.506,-1.689,-1.948,-1.837,-1.694,-0.27,1.807,0.13
'0:00.313',-1.289,1.381,2.671,-0.046,-1.98,2.026,-1.675,-1.504,-1.688,-1.944,-1.827,-1.685,-0.267,1.815,0.129
'0:00.314',-1.288,1.375,2.663,-0.043,-1.976,2.019,-1.683,-1.512,-1.695,-1.951,-1.838,-1.694,-0.271,1.81,0.131
'0:00.315',-1.286,1.375,2.662,-0.045,-1.974,2.018,-1.683,-1.512,-1.696,-1.954,-1.847,-1.7,-0.273,1.808,0.132
'0:00.316',-1.284,1.383,2.668,-0.049,-1.976,2.026,-1.676,-1.506,-1.69,-1.946,-1.837,-1.688,-0.269,1.806,0.13
'0:00.317',-1.282,1.383,2.666,-0.051,-1.974,2.024,-1.677,-1.505,-1.689,-1.946,-1.839,-1.692,-0.27,1.804,0.133
'0:00.318',-1.287,1.384,2.672,-0.049,-1.98,2.028,-1.673,-1.502,-1.683,-1.942,-1.837,-1.688,-0.27,1.806,0.133
'0:00.319',-1.286,1.384,2.671,-0.049,-1.978,2.027,-1.673,-1.509,-1.692,-1.953,-1.845,-1.7,-0.28,1.805,0.138
'0:00.320',-1.28,1.383,2.663,-0.051,-1.972,2.023,-1.679,-1.51,-1.697,-1.96,-1.85,-1.706,-0.284,1.806,0.135
'0:00.321',-1.282,1.387,2.67,-0.052,-1.976,2.029,-1.675,-1.504,-1.69,-1.953,-1.845,-1.699,-0.28,1.813,0.132
'0:00.322',-1.28,1.388,2.668,-0.054,-1.974,2.028,-1.68,-1.508,-1.693,-1.956,-1.846,-1.702,-0.266,1.817,0.144
'0:00.323',-1.28,1.383,2.664,-0.051,-1.972,2.023,-1.685,-1.514,-1.698,-1.957,-1.844,-1.702,-0.267,1.81,0.144
'0:00.324',-1.293,1.383,2.676,-0.045,-1.984,2.03,-1.677,-1.506,-1.688,-1.945,-1.838,-1.692,-0.271,1.812,0.136
'0:00.325',-1.298,1.383,2.681,-0.043,-1.99,2.033,-1.675,-1.5,-1.687,-1.944,-1.835,-1.689,-0.265,1.817,0.138
'0:00.326',-1.288,1.381,2.67,-0.046,-1.979,2.025,-1.683,-1.511,-1.7,-1.961,-1.851,-1.707,-0.276,1.806,0.142
'0:00.327',-1.281,1.388,2.67,-0.053,-1.976,2.029,-1.683,-1.51,-1.696,-1.958,-1.849,-1.703,-0.277,1.807,0.137
'0:00.328',-1.286,1.389,2.676,-0.051,-1.982,2.033,-1.679,-1.511,-1.693,-1.955,-1.842,-1.696,-0.273,1.818,0.134
'0:00.329',-1.293,1.379,2.673,-0.043,-1.983,2.026,-1.685,-1.516,-1.696,-1.958,-1.849,-1.702,-0.278,1.813,0.136
'0:00.330',-1.3,1.374,2.674,-0.037,-1.986,2.023,-1.683,-1.51,-1.692,-1.952,-1.843,-1.697,-0.276,1.813,0.134
'0:00.331',-1.294,1.377,2.671,-0.041,-1.982,2.024,-1.683,-1.51,-1.692,-1.95,-1.839,-1.692,-0.269,1.816,0.134
'0:00.332',-1.29,1.377,2.667,-0.043,-1.979,2.022,-1.687,-1.51,-1.692,-1.944,-1.837,-1.688,-0.265,1.81,0.136
'0:00.333',-1.308,1.365,2.672,-0.029,-1.99,2.018,-1.686,-1.512,-1.694,-1.943,-1.841,-1.691,-0.265,1.804,0.137
'0:00.334',-1.302,1.369,2.672,-0.033,-1.988,2.021,-1.681,-1.51,-1.692,-1.946,-1.845,-1.696,-0.27,1.811,0.137
'0:00.335',-1.295,1.375,2.671,-0.04,-1.983,2.023,-1.679,-1.506,-1.691,-1.947,-1.843,-1.696,-0.274,1.812,0.134
'0:00.336',-1.301,1.369,2.671,-0.034,-1.986,2.02,-1.68,-1.507,-1.689,-1.942,-1.836,-1.692,-0.273,1.806,0.131
'0:00.337',-1.29,1.374,2.664,-0.042,-1.977,2.019,-1.685,-1.511,-1.692,-1.946,-1.835,-1.695,-0.271,1.807,0.138
'0:00.338',-1.284,1.377,2.662,-0.047,-1.973,2.02,-1.688,-1.518,-1.698,-1.952,-1.837,-1.697,-0.271,1.802,0.14
'0:00.339',-1.295,1.377,2.672,-0.041,-1.984,2.025,-1.683,-1.512,-1.693,-1.948,-1.835,-1.696,-0.278,1.812,0.135
'0:00.340',-1.298,1.375,2.674,-0.038,-1.986,2.024,-1.685,-1.512,-1.692,-1.948,-1.836,-1.696,-0.277,1.812,0.133
'0:00.341',-1.292,1.375,2.667,-0.042,-1.979,2.021,-1.685,-1.515,-1.694,-1.949,-1.837,-1.695,-0.272,1.808,0.134
'0:00.342',-1.289,1.377,2.667,-0.044,-1.978,2.022,-1.679,-1.508,-1.69,-1.947,-1.843,-1.698,-0.277,1.815,0.131
'0:00.343',-1.284,1.376,2.66,-0.046,-1.972,2.018,-1.679,-1.508,-1.69,-1.948,-1.837,-1.7,-0.275,1.806,0.129
'0:00.344',-1.282,1.382,2.663,-0.051,-1.972,2.022,-1.683,-1.51,-1.693,-1.952,-1.833,-1.698,-0.271,1.808,0.134
'0:00.345',-1.284,1.387,2.671,-0.051,-1.978,2.029,-1.679,-1.507,-1.69,-1.948,-1.837,-1.698,-0.274,1.817,0.131
'0:00.346',-1.278,1.393,2.671,-0.058,-1.974,2.032,-1.673,-1.506,-1.685,-1.943,-1.834,-1.693,-0.275,1.821,0.126
'0:00.347',-1.282,1.393,2.675,-0.056,-1.978,2.034,-1.673,-1.51,-1.688,-1.948,-1.835,-1.694,-0.281,1.817,0.129
'0:00.348',-1.292,1.381,2.674,-0.044,-1.983,2.027,-1.674,-1.51,-1.692,-1.952,-1.84,-1.697,-0.278,1.81,0.134
'0:00.349',-1.285,1.386,2.671,-0.051,-1.978,2.029,-1.675,-1.502,-1.683,-1.944,-1.834,-1.688,-0.265,1.816,0.135
'0:00.350',-1.28,1.391,2.672,-0.056,-1.976,2.032,-1.673,-1.505,-1.685,-1.948,-1.833,-1.69,-0.27,1.819,0.132
'0:00.351',-1.284,1.389,2.674,-0.052,-1.979,2.031,-1.681,-1.512,-1.69,-1.954,-1.841,-1.698,-0.277,1.817,0.137
'0:00.352',-1.284,1.393,2.678,-0.055,-1.98,2.035,-1.673,-1.506,-1.685,-1.948,-1.84,-1.694,-0.272,1.819,0.139
'0:00.353',-1.278,1.4,2.679,-0.061,-1.978,2.039,-1.665,-1.504,-1.683,-1.947,-1.837,-1.691,-0.271,1.829,0.136
'0:00.354',-1.276,1.402,2.679,-0.063,-1.977,2.04,-1.671,-1.507,-1.687,-1.95,-1.837,-1.694,-0.275,1.826,0.133
'0:00.355',-1.28,1.393,2.674,-0.057,-1.977,2.034,-1.673,-1.508,-1.69,-1.952,-1.84,-1.698,-0.273,1.817,0.133
'0:00.356',-1.281,1.389,2.671,-0.054,-1.976,2.03,-1.678,-1.51,-1.688,-1.952,-1.839,-1.696,-0.267,1.823,0.135
'0:00.357',-1.292,1.39,2.683,-0.049,-1.988,2.036,-1.672,-1.507,-1.683,-1.946,-1.833,-1.688,-0.27,1.83,0.126
'0:00.358',-1.299,1.387,2.687,-0.044,-1.993,2.037,-1.667,-1.504,-1.682,-1.946,-1.835,-1.69,-0.274,1.827,0.122
'0:00.359',-1.3,1.386,2.686,-0.043,-1.992,2.036,-1.671,-1.507,-1.685,-1.951,-1.837,-1.696,-0.275,1.826,0.127
'0:00.360',-1.3,1.395,2.696,-0.048,-1.998,2.046,-1.666,-1.504,-1.681,-1.946,-1.835,-1.692,-0.28,1.843,0.121
'0:00.361',-1.299,1.397,2.697,-0.049,-1.998,2.047,-1.657,-1.496,-1.675,-1.94,-1.834,-1.688,-0.273,1.851,0.12
'0:00.362',-1.305,1.392,2.697,-0.043,-2.002,2.045,-1.655,-1.496,-1.679,-1.945,-1.836,-1.692,-0.276,1.843,0.12
'0:00.363',-1.302,1.401,2.703,-0.049,-2.002,2.052,-1.659,-1.495,-1.674,-1.942,-1.834,-1.69,-0.28,1.849,0.118
'0:00.364',-1.287,1.41,2.697,-0.062,-1.992,2.054,-1.651,-1.492,-1.673,-1.94,-1.832,-1.69,-0.281,1.857,0.114
'0:00.365',-1.279,1.413,2.693,-0.068,-1.986,2.054,-1.654,-1.493,-1.674,-1.942,-1.831,-1.688,-0.281,1.863,0.115
'0:00.366',-1.294,1.405,2.699,-0.056,-1.996,2.052,-1.659,-1.497,-1.674,-1.944,-1.836,-1.692,-0.28,1.873,0.118
'0:00.367',-1.299,1.406,2.705,-0.053,-2.002,2.055,-1.659,-1.496,-1.675,-1.942,-1.833,-1.689,-0.279,1.871,0.117
'0:00.368',-1.294,1.416,2.711,-0.061,-2.002,2.063,-1.655,-1.488,-1.665,-1.931,-1.823,-1.674,-0.267,1.869,0.117
'0:00.369',-1.291,1.407,2.699,-0.058,-1.995,2.053,-1.658,-1.494,-1.67,-1.939,-1.831,-1.686,-0.27,1.859,0.119
'0:00.370',-1.288,1.401,2.689,-0.056,-1.988,2.045,-1.665,-1.5,-1.679,-1.946,-1.834,-1.692,-0.275,1.855,0.121
'0:00.371',-1.295,1.399,2.694,-0.051,-1.994,2.046,-1.659,-1.498,-1.677,-1.944,-1.837,-1.693,-0.28,1.859,0.12
'0:00.372',-1.306,1.389,2.696,-0.042,-2.001,2.042,-1.657,-1.5,-1.677,-1.944,-1.841,-1.695,-0.282,1.846,0.119
'0:00.373',-1.308,1.388,2.696,-0.04,-2.002,2.042,-1.655,-1.498,-1.675,-1.94,-1.837,-1.689,-0.275,1.842,0.119
'0:00.374',-1.302,1.393,2.696,-0.045,-2,2.045,-1.653,-1.495,-1.671,-1.937,-1.835,-1.688,-0.275,1.847,0.117
'0:00.375',-1.299,1.406,2.706,-0.053,-2.002,2.056,-1.648,-1.486,-1.661,-1.923,-1.813,-1.67,-0.263,1.857,0.109
'0:00.376',-1.292,1.407,2.7,-0.058,-1.996,2.054,-1.647,-1.482,-1.663,-1.927,-1.82,-1.679,-0.265,1.857,0.108
'0:00.377',-1.292,1.404,2.696,-0.057,-1.994,2.05,-1.646,-1.486,-1.665,-1.933,-1.835,-1.688,-0.27,1.851,0.107
'0:00.378',-1.293,1.407,2.7,-0.057,-1.997,2.054,-1.642,-1.48,-1.66,-1.924,-1.829,-1.678,-0.263,1.855,0.105
'0:00.379',-1.29,1.406,2.696,-0.058,-1.994,2.051,-1.638,-1.473,-1.655,-1.922,-1.826,-1.678,-0.267,1.859,0.102
'0:00.380',-1.294,1.417,2.711,-0.061,-2.002,2.063,-1.635,-1.477,-1.653,-1.919,-1.825,-1.675,-0.267,1.869,0.1
'0:00.381',-1.298,1.413,2.712,-0.058,-2.006,2.063,-1.637,-1.48,-1.661,-1.927,-1.834,-1.685,-0.267,1.871,0.103
'0:00.382',-1.294,1.416,2.711,-0.061,-2.002,2.063,-1.641,-1.479,-1.659,-1.926,-1.831,-1.685,-0.264,1.868,0.101
'0:00.383',-1.296,1.419,2.716,-0.061,-2.006,2.067,-1.64,-1.482,-1.657,-1.923,-1.832,-1.683,-0.264,1.873,0.098
'0:00.384',-1.303,1.409,2.712,-0.052,-2.007,2.061,-1.642,-1.485,-1.659,-1.924,-1.831,-1.682,-0.265,1.871,0.101
'0:00.385',-1.297,1.415,2.712,-0.059,-2.005,2.064,-1.643,-1.486,-1.659,-1.921,-1.825,-1.678,-0.266,1.873,0.099
'0:00.386',-1.297,1.421,2.719,-0.062,-2.007,2.07,-1.647,-1.488,-1.661,-1.921,-1.826,-1.679,-0.268,1.882,0.099
'0:00.387',-1.298,1.425,2.724,-0.062,-2.011,2.074,-1.652,-1.496,-1.666,-1.924,-1.824,-1.677,-0.265,1.887,0.103
'0:00.388',-1.304,1.426,2.731,-0.061,-2.017,2.078,-1.652,-1.501,-1.669,-1.928,-1.829,-1.679,-0.269,1.895,0.106
'0:00.389',-1.308,1.423,2.732,-0.058,-2.019,2.077,-1.665,-1.504,-1.669,-1.929,-1.83,-1.681,-0.269,1.89,0.109
'0:00.390',-1.306,1.423,2.729,-0.059,-2.018,2.076,-1.673,-1.514,-1.674,-1.931,-1.829,-1.679,-0.263,1.887,0.114
'0:00.391',-1.302,1.437,2.74,-0.068,-2.021,2.088,-1.666,-1.506,-1.665,-1.921,-1.82,-1.668,-0.257,1.894,0.112
'0:00.392',-1.293,1.454,2.748,-0.081,-2.02,2.1,-1.663,-1.498,-1.656,-1.913,-1.811,-1.659,-0.257,1.896,0.107
'0:00.393',-1.286,1.458,2.744,-0.086,-2.014,2.101,-1.677,-1.51,-1.665,-1.921,-1.813,-1.665,-0.263,1.903,0.11
'0:00.394',-1.274,1.466,2.74,-0.096,-2.006,2.103,-1.69,-1.518,-1.669,-1.927,-1.816,-1.669,-0.263,1.909,0.116
'0:00.395',-1.274,1.468,2.744,-0.097,-2.009,2.106,-1.694,-1.52,-1.668,-1.927,-1.815,-1.669,-0.262,1.913,0.118
'0:00.396',-1.273,1.476,2.749,-0.102,-2.011,2.113,-1.698,-1.518,-1.662,-1.915,-1.805,-1.658,-0.255,1.918,0.118
'0:00.397',-1.264,1.488,2.752,-0.113,-2.008,2.12,-1.702,-1.52,-1.659,-1.911,-1.8,-1.653,-0.249,1.921,0.122
'0:00.398',-1.266,1.486,2.752,-0.11,-2.009,2.119,-1.706,-1.524,-1.665,-1.918,-1.804,-1.661,-0.255,1.925,0.128
'0:00.399',-1.265,1.486,2.751,-0.11,-2.008,2.119,-1.714,-1.53,-1.673,-1.925,-1.808,-1.667,-0.262,1.921,0.124
'0:00.400',-1.263,1.488,2.752,-0.113,-2.008,2.12,-1.718,-1.536,-1.673,-1.926,-1.811,-1.669,-0.262,1.919,0.119
'0:00.401',-1.261,1.492,2.754,-0.116,-2.008,2.123,-1.713,-1.53,-1.671,-1.923,-1.808,-1.666,-0.256,1.926,0.121
'0:00.402',-1.264,1.493,2.758,-0.114,-2.011,2.126,-1.716,-1.531,-1.673,-1.923,-1.804,-1.661,-0.256,1.927,0.119
'0:00.403',-1.266,1.489,2.755,-0.112,-2.01,2.122,-1.716,-1.529,-1.669,-1.919,-1.81,-1.663,-0.262,1.928,0.117
'0:00.404',-1.262,1.489,2.752,-0.114,-2.007,2.12,-1.712,-1.524,-1.667,-1.917,-1.808,-1.663,-0.254,1.924,0.117
'0:00.405',-1.255,1.498,2.753,-0.122,-2.004,2.126,-1.717,-1.525,-1.666,-1.917,-1.804,-1.661,-0.246,1.927,0.121
'0:00.406',-1.258,1.5,2.76,-0.121,-2.009,2.13,-1.718,-1.528,-1.669,-1.917,-1.804,-1.661,-0.246,1.931,0.126
'0:00.407',-1.256,1.502,2.76,-0.123,-2.007,2.131,-1.723,-1.534,-1.669,-1.918,-1.803,-1.659,-0.244,1.927,0.128
'0:00.408',-1.244,1.514,2.759,-0.136,-2.001,2.136,-1.724,-1.53,-1.665,-1.915,-1.798,-1.655,-0.246,1.942,0.125
'0:00.409',-1.251,1.515,2.766,-0.132,-2.009,2.14,-1.721,-1.534,-1.665,-1.913,-1.792,-1.653,-0.245,1.95,0.125
'0:00.410',-1.24,1.524,2.764,-0.142,-2.002,2.144,-1.718,-1.536,-1.665,-1.913,-1.795,-1.655,-0.243,1.954,0.133
'0:00.411',-1.236,1.534,2.771,-0.149,-2.003,2.153,-1.716,-1.53,-1.665,-1.911,-1.792,-1.655,-0.245,1.96,0.133
'0:00.412',-1.247,1.53,2.777,-0.141,-2.012,2.154,-1.725,-1.538,-1.669,-1.917,-1.797,-1.661,-0.247,1.956,0.134
'0:00.413',-1.248,1.523,2.771,-0.138,-2.009,2.147,-1.733,-1.546,-1.679,-1.922,-1.801,-1.665,-0.247,1.954,0.139
'0:00.414',-1.25,1.511,2.762,-0.131,-2.006,2.136,-1.732,-1.551,-1.686,-1.93,-1.808,-1.671,-0.255,1.946,0.137
'0:00.415',-1.256,1.504,2.761,-0.123,-2.009,2.132,-1.734,-1.556,-1.69,-1.935,-1.815,-1.675,-0.258,1.945,0.137
'0:00.416',-1.262,1.502,2.764,-0.119,-2.013,2.133,-1.74,-1.558,-1.692,-1.935,-1.813,-1.675,-0.258,1.946,0.139
'0:00.417',-1.271,1.498,2.769,-0.113,-2.02,2.133,-1.737,-1.56,-1.697,-1.941,-1.817,-1.68,-0.267,1.938,0.138
'0:00.418',-1.276,1.492,2.767,-0.108,-2.021,2.129,-1.736,-1.556,-1.696,-1.942,-1.823,-1.683,-0.265,1.93,0.14
'0:00.419',-1.27,1.488,2.757,-0.11,-2.014,2.123,-1.735,-1.56,-1.698,-1.942,-1.825,-1.685,-0.263,1.928,0.141
'0:00.420',-1.276,1.484,2.76,-0.104,-2.018,2.122,-1.73,-1.56,-1.702,-1.946,-1.825,-1.688,-0.266,1.921,0.141
'0:00.421',-1.286,1.478,2.764,-0.096,-2.025,2.121,-1.727,-1.556,-1.701,-1.946,-1.824,-1.69,-0.266,1.915,0.143
'0:00.422',-1.294,1.47,2.764,-0.088,-2.029,2.116,-1.724,-1.556,-1.701,-1.945,-1.817,-1.685,-0.264,1.903,0.141
'0:00.423',-1.281,1.468,2.749,-0.093,-2.015,2.108,-1.728,-1.553,-1.7,-1.946,-1.819,-1.684,-0.26,1.897,0.14
'0:00.424',-1.27,1.468,2.74,-0.099,-2.005,2.103,-1.725,-1.548,-1.695,-1.943,-1.825,-1.685,-0.259,1.897,0.14
'0:00.425',-1.288,1.454,2.743,-0.083,-2.015,2.099,-1.718,-1.544,-1.691,-1.94,-1.825,-1.681,-0.26,1.893,0.142
'0:00.426',-1.3,1.441,2.741,-0.07,-2.021,2.091,-1.715,-1.546,-1.697,-1.946,-1.833,-1.69,-0.274,1.887,0.141
'0:00.427',-1.297,1.437,2.735,-0.07,-2.016,2.086,-1.719,-1.55,-1.702,-1.952,-1.834,-1.696,-0.279,1.878,0.139
'0:00.428',-1.294,1.427,2.723,-0.067,-2.009,2.075,-1.72,-1.547,-1.7,-1.958,-1.842,-1.701,-0.274,1.867,0.144
'0:00.429',-1.296,1.415,2.711,-0.06,-2.003,2.063,-1.714,-1.539,-1.697,-1.952,-1.842,-1.697,-0.271,1.852,0.144
'0:00.430',-1.302,1.406,2.708,-0.052,-2.005,2.057,-1.716,-1.54,-1.698,-1.95,-1.837,-1.692,-0.268,1.843,0.143
'0:00.431',-1.309,1.398,2.708,-0.044,-2.009,2.053,-1.714,-1.544,-1.707,-1.96,-1.849,-1.703,-0.276,1.843,0.142
'0:00.432',-1.311,1.401,2.712,-0.045,-2.011,2.057,-1.712,-1.545,-1.709,-1.962,-1.847,-1.706,-0.277,1.843,0.142
'0:00.433',-1.312,1.403,2.716,-0.046,-2.014,2.059,-1.711,-1.536,-1.7,-1.955,-1.842,-1.699,-0.269,1.849,0.14
'0:00.434',-1.312,1.402,2.714,-0.045,-2.013,2.058,-1.7,-1.526,-1.692,-1.947,-1.839,-1.694,-0.267,1.851,0.134
'0:00.435',-1.323,1.395,2.719,-0.036,-2.021,2.058,-1.694,-1.525,-1.69,-1.943,-1.835,-1.688,-0.265,1.845,0.135
'0:00.436',-1.336,1.377,2.713,-0.021,-2.025,2.045,-1.699,-1.529,-1.698,-1.952,-1.843,-1.698,-0.267,1.835,0.142
'0:00.437',-1.333,1.367,2.7,-0.018,-2.017,2.034,-1.701,-1.532,-1.705,-1.961,-1.847,-1.709,-0.275,1.825,0.144
'0:00.438',-1.333,1.361,2.695,-0.014,-2.014,2.028,-1.694,-1.524,-1.698,-1.95,-1.839,-1.698,-0.262,1.823,0.146
'0:00.439',-1.331,1.35,2.682,-0.009,-2.006,2.016,-1.698,-1.53,-1.706,-1.964,-1.849,-1.713,-0.269,1.817,0.15
'0:00.440',-1.327,1.349,2.678,-0.011,-2.002,2.014,-1.696,-1.536,-1.713,-1.977,-1.859,-1.726,-0.29,1.809,0.144
'0:00.441',-1.333,1.344,2.678,-0.006,-2.005,2.011,-1.687,-1.525,-1.705,-1.968,-1.855,-1.719,-0.289,1.808,0.137
'0:00.442',-1.329,1.339,2.668,-0.005,-1.998,2.003,-1.688,-1.524,-1.703,-1.966,-1.852,-1.714,-0.278,1.796,0.138
'0:00.443',-1.322,1.343,2.665,-0.011,-1.994,2.004,-1.696,-1.528,-1.707,-1.968,-1.856,-1.72,-0.276,1.79,0.138
'0:00.444',-1.327,1.344,2.671,-0.009,-1.998,2.007,-1.694,-1.525,-1.706,-1.963,-1.849,-1.713,-0.273,1.795,0.135
'0:00.445',-1.329,1.339,2.667,-0.005,-1.998,2.003,-1.688,-1.522,-1.702,-1.959,-1.847,-1.705,-0.269,1.794,0.138
'0:00.446',-1.329,1.333,2.663,-0.002,-1.996,1.998,-1.685,-1.522,-1.702,-1.964,-1.857,-1.718,-0.282,1.79,0.136
'0:00.447',-1.333,1.329,2.663,0.002,-1.998,1.996,-1.683,-1.522,-1.703,-1.967,-1.855,-1.716,-0.286,1.782,0.129
'0:00.448',-1.319,1.335,2.655,-0.008,-1.988,1.996,-1.684,-1.519,-1.702,-1.964,-1.852,-1.714,-0.279,1.78,0.131
'0:00.449',-1.319,1.335,2.654,-0.008,-1.986,1.994,-1.683,-1.517,-1.7,-1.958,-1.849,-1.711,-0.273,1.781,0.128
'0:00.450',-1.335,1.319,2.655,0.007,-1.995,1.988,-1.686,-1.523,-1.704,-1.96,-1.853,-1.711,-0.269,1.776,0.127
'0:00.451',-1.333,1.317,2.651,0.008,-1.992,1.984,-1.685,-1.524,-1.707,-1.963,-1.858,-1.716,-0.274,1.767,0.129
'0:00.452',-1.337,1.31,2.648,0.013,-1.993,1.98,-1.692,-1.529,-1.711,-1.965,-1.859,-1.717,-0.279,1.771,0.129
'0:00.453',-1.345,1.31,2.655,0.018,-2.001,1.982,-1.687,-1.53,-1.71,-1.965,-1.858,-1.719,-0.279,1.782,0.131
'0:00.454',-1.351,1.31,2.661,0.021,-2.006,1.985,-1.683,-1.528,-1.71,-1.967,-1.861,-1.72,-0.283,1.777,0.134
'0:00.455',-1.342,1.31,2.652,0.016,-1.998,1.982,-1.688,-1.532,-1.714,-1.968,-1.862,-1.72,-0.277,1.774,0.137
'0:00.456',-1.342,1.308,2.651,0.017,-1.996,1.98,-1.683,-1.526,-1.706,-1.963,-1.861,-1.72,-0.277,1.78,0.136
'0:00.457',-1.353,1.301,2.654,0.026,-2.003,1.978,-1.685,-1.523,-1.708,-1.967,-1.863,-1.724,-0.288,1.78,0.133
'0:00.458',-1.347,1.308,2.656,0.019,-2.002,1.982,-1.683,-1.526,-1.71,-1.97,-1.865,-1.73,-0.291,1.776,0.131
'0:00.459',-1.353,1.305,2.659,0.024,-2.006,1.982,-1.685,-1.526,-1.71,-1.97,-1.865,-1.729,-0.289,1.772,0.137
'0:00.460',-1.349,1.305,2.655,0.022,-2.002,1.98,-1.687,-1.528,-1.714,-1.974,-1.867,-1.728,-0.284,1.768,0.142
'0:00.461',-1.343,1.313,2.656,0.015,-2,1.985,-1.685,-1.526,-1.711,-1.972,-1.867,-1.726,-0.281,1.768,0.141
'0:00.462',-1.351,1.31,2.661,0.021,-2.006,1.985,-1.683,-1.521,-1.704,-1.962,-1.855,-1.718,-0.278,1.778,0.136
'0:00.463',-1.356,1.303,2.659,0.026,-2.007,1.981,-1.683,-1.524,-1.705,-1.964,-1.859,-1.721,-0.282,1.777,0.135
'0:00.464',-1.355,1.299,2.655,0.028,-2.005,1.977,-1.688,-1.525,-1.708,-1.966,-1.863,-1.723,-0.28,1.776,0.138
'0:00.465',-1.349,1.298,2.648,0.026,-1.999,1.973,-1.687,-1.526,-1.708,-1.966,-1.864,-1.723,-0.28,1.77,0.137
'0:00.466',-1.345,1.299,2.645,0.024,-1.996,1.972,-1.685,-1.526,-1.712,-1.97,-1.869,-1.73,-0.285,1.765,0.138
'0:00.467',-1.347,1.302,2.65,0.022,-1.998,1.976,-1.677,-1.52,-1.707,-1.966,-1.865,-1.725,-0.286,1.769,0.138
'0:00.468',-1.34,1.308,2.648,0.016,-1.994,1.978,-1.673,-1.516,-1.701,-1.961,-1.861,-1.72,-0.282,1.767,0.139
'0:00.469',-1.336,1.306,2.642,0.015,-1.989,1.974,-1.681,-1.518,-1.704,-1.962,-1.863,-1.719,-0.281,1.762,0.141
'0:00.470',-1.341,1.302,2.643,0.02,-1.992,1.972,-1.675,-1.517,-1.702,-1.96,-1.864,-1.718,-0.285,1.763,0.139
'0:00.471',-1.341,1.306,2.647,0.018,-1.994,1.976,-1.667,-1.508,-1.694,-1.954,-1.857,-1.712,-0.281,1.769,0.137
'0:00.472',-1.342,1.309,2.651,0.017,-1.996,1.98,-1.672,-1.51,-1.696,-1.954,-1.855,-1.71,-0.28,1.766,0.136
'0:00.473',-1.339,1.308,2.647,0.015,-1.992,1.978,-1.677,-1.517,-1.701,-1.959,-1.858,-1.714,-0.282,1.765,0.138
'0:00.474',-1.337,1.307,2.644,0.015,-1.99,1.976,-1.673,-1.512,-1.699,-1.958,-1.858,-1.714,-0.286,1.768,0.138
'0:00.475',-1.337,1.308,2.646,0.015,-1.991,1.976,-1.67,-1.51,-1.697,-1.954,-1.853,-1.711,-0.279,1.762,0.138
'0:00.476',-1.333,1.302,2.635,0.015,-1.984,1.968,-1.674,-1.514,-1.705,-1.962,-1.858,-1.718,-0.282,1.756,0.141
'0:00.477',-1.332,1.301,2.634,0.015,-1.983,1.968,-1.677,-1.52,-1.708,-1.968,-1.865,-1.723,-0.292,1.753,0.139
'0:00.478',-1.333,1.304,2.638,0.014,-1.985,1.971,-1.673,-1.514,-1.701,-1.96,-1.862,-1.716,-0.286,1.752,0.134
'0:00.479',-1.341,1.295,2.636,0.023,-1.989,1.966,-1.673,-1.512,-1.703,-1.96,-1.865,-1.718,-0.286,1.754,0.131
'0:00.480',-1.335,1.292,2.627,0.021,-1.981,1.959,-1.675,-1.518,-1.704,-1.96,-1.857,-1.717,-0.275,1.752,0.136
'0:00.481',-1.327,1.298,2.626,0.014,-1.976,1.962,-1.669,-1.511,-1.7,-1.956,-1.855,-1.715,-0.275,1.748,0.136
'0:00.482',-1.328,1.305,2.634,0.011,-1.98,1.969,-1.668,-1.508,-1.7,-1.955,-1.859,-1.716,-0.279,1.75,0.135
'0:00.483',-1.331,1.3,2.631,0.015,-1.981,1.965,-1.673,-1.512,-1.701,-1.954,-1.857,-1.715,-0.277,1.754,0.135
'0:00.484',-1.343,1.294,2.637,0.025,-1.99,1.966,-1.667,-1.508,-1.696,-1.948,-1.855,-1.708,-0.277,1.762,0.134
'0:00.485',-1.339,1.298,2.639,0.021,-1.989,1.968,-1.664,-1.506,-1.693,-1.945,-1.852,-1.704,-0.273,1.761,0.133
'0:00.486',-1.351,1.284,2.635,0.034,-1.993,1.96,-1.673,-1.512,-1.703,-1.958,-1.865,-1.718,-0.278,1.751,0.135
'0:00.487',-1.355,1.28,2.635,0.037,-1.994,1.957,-1.672,-1.512,-1.704,-1.959,-1.867,-1.72,-0.276,1.752,0.141
'0:00.488',-1.337,1.298,2.635,0.018,-1.986,1.967,-1.664,-1.501,-1.693,-1.946,-1.851,-1.705,-0.267,1.756,0.135
'0:00.489',-1.339,1.298,2.638,0.021,-1.988,1.968,-1.663,-1.499,-1.689,-1.942,-1.848,-1.702,-0.266,1.754,0.131
'0:00.490',-1.339,1.292,2.632,0.024,-1.986,1.962,-1.665,-1.501,-1.694,-1.95,-1.859,-1.711,-0.271,1.752,0.136
'0:00.491',-1.343,1.29,2.633,0.026,-1.988,1.962,-1.663,-1.496,-1.692,-1.952,-1.861,-1.712,-0.274,1.753,0.137
'0:00.492',-1.35,1.284,2.634,0.034,-1.992,1.958,-1.663,-1.496,-1.692,-1.954,-1.861,-1.718,-0.279,1.75,0.134
'0:00.493',-1.346,1.281,2.627,0.033,-1.987,1.954,-1.661,-1.496,-1.694,-1.961,-1.871,-1.728,-0.284,1.744,0.132
'0:00.494',-1.341,1.276,2.618,0.033,-1.98,1.946,-1.659,-1.492,-1.692,-1.961,-1.873,-1.728,-0.281,1.737,0.13
'0:00.495',-1.338,1.278,2.617,0.03,-1.978,1.948,-1.642,-1.476,-1.681,-1.954,-1.865,-1.722,-0.277,1.73,0.123
'0:00.496',-1.336,1.268,2.605,0.034,-1.97,1.937,-1.631,-1.464,-1.677,-1.96,-1.875,-1.73,-0.283,1.716,0.117
'0:00.497',-1.331,1.244,2.575,0.043,-1.952,1.909,-1.625,-1.458,-1.683,-1.976,-1.894,-1.748,-0.294,1.693,0.117
'0:00.498',-1.325,1.236,2.562,0.045,-1.944,1.899,-1.604,-1.431,-1.669,-1.972,-1.895,-1.748,-0.296,1.681,0.108
'0:00.499',-1.331,1.224,2.555,0.053,-1.943,1.89,-1.587,-1.405,-1.652,-1.966,-1.897,-1.749,-0.294,1.673,0.095
'0:00.500',-1.337,1.222,2.559,0.058,-1.948,1.891,-1.562,-1.377,-1.631,-1.956,-1.892,-1.744,-0.29,1.677,0.08
'0:00.501',-1.331,1.232,2.563,0.05,-1.947,1.897,-1.545,-1.355,-1.611,-1.94,-1.885,-1.732,-0.287,1.673,0.065
'0:00.502',-1.321,1.246,2.568,0.038,-1.945,1.907,-1.538,-1.345,-1.605,-1.935,-1.881,-1.727,-0.282,1.677,0.059
'0:00.503',-1.318,1.251,2.57,0.034,-1.944,1.91,-1.54,-1.338,-1.595,-1.924,-1.871,-1.715,-0.271,1.677,0.057
'0:00.504',-1.31,1.252,2.563,0.029,-1.937,1.908,-1.547,-1.335,-1.582,-1.909,-1.861,-1.702,-0.251,1.669,0.058
'0:00.505',-1.294,1.266,2.561,0.014,-1.927,1.913,-1.543,-1.319,-1.56,-1.883,-1.848,-1.684,-0.232,1.685,0.049
'0:00.506',-1.278,1.28,2.558,-0.002,-1.917,1.919,-1.547,-1.304,-1.53,-1.845,-1.826,-1.654,-0.205,1.704,0.032
'0:00.507',-1.265,1.295,2.561,-0.015,-1.913,1.927,-1.554,-1.291,-1.502,-1.809,-1.806,-1.624,-0.172,1.717,0.028
'0:00.508',-1.252,1.311,2.564,-0.029,-1.908,1.938,-1.566,-1.287,-1.482,-1.78,-1.787,-1.599,-0.147,1.721,0.028
'0:00.509',-1.235,1.339,2.575,-0.052,-1.905,1.957,-1.589,-1.287,-1.462,-1.746,-1.754,-1.559,-0.109,1.737,0.036
'0:00.510',-1.218,1.365,2.583,-0.073,-1.901,1.974,-1.597,-1.256,-1.42,-1.695,-1.718,-1.512,-0.067,1.756,0.033
'0:00.511',-1.188,1.387,2.575,-0.1,-1.881,1.981,-1.591,-1.208,-1.361,-1.635,-1.685,-1.464,-0.019,1.766,0.015
'0:00.512',-1.153,1.427,2.58,-0.137,-1.867,2.003,-1.601,-1.187,-1.315,-1.581,-1.642,-1.411,0.035,1.792,0.005
'0:00.513',-1.123,1.482,2.606,-0.179,-1.865,2.044,-1.619,-1.175,-1.267,-1.517,-1.592,-1.347,0.09,1.827,-0.008
'0:00.514',-1.089,1.53,2.62,-0.22,-1.855,2.075,-1.624,-1.145,-1.21,-1.449,-1.546,-1.282,0.146,1.858,-0.024
'0:00.515',-1.054,1.581,2.635,-0.263,-1.845,2.108,-1.633,-1.126,-1.165,-1.385,-1.492,-1.218,0.214,1.905,-0.029
'0:00.516',-1.02,1.651,2.672,-0.315,-1.846,2.162,-1.668,-1.16,-1.141,-1.323,-1.435,-1.151,0.28,1.962,-0.033
'0:00.517',-1,1.696,2.697,-0.347,-1.849,2.197,-1.718,-1.234,-1.15,-1.29,-1.393,-1.103,0.319,2.009,-0.022
'0:00.518',-0.988,1.752,2.741,-0.382,-1.865,2.247,-1.76,-1.31,-1.161,-1.258,-1.349,-1.055,0.354,2.071,-0.012
'0:00.519',-0.972,1.825,2.797,-0.425,-1.885,2.311,-1.804,-1.385,-1.161,-1.214,-1.301,-1,0.401,2.13,-0.005
'0:00.520',-0.944,1.892,2.837,-0.473,-1.891,2.365,-1.843,-1.438,-1.155,-1.168,-1.249,-0.938,0.458,2.187,0.001
'0:00.521',-0.917,1.975,2.893,-0.529,-1.905,2.434,-1.865,-1.487,-1.147,-1.128,-1.204,-0.883,0.5,2.263,-0.004
'0:00.522',-0.917,2.037,2.955,-0.559,-1.936,2.496,-1.903,-1.573,-1.175,-1.119,-1.181,-0.859,0.516,2.328,0.005
'0:00.523',-0.924,2.09,3.015,-0.583,-1.97,2.553,-1.969,-1.681,-1.226,-1.127,-1.165,-0.845,0.522,2.39,0.027
'0:00.524',-0.938,2.148,3.087,-0.605,-2.013,2.618,-2.037,-1.798,-1.291,-1.151,-1.159,-0.844,0.514,2.448,0.054
'0:00.525',-0.965,2.2,3.166,-0.618,-2.066,2.683,-2.083,-1.903,-1.359,-1.173,-1.153,-0.842,0.506,2.502,0.076
'0:00.526',-0.986,2.26,3.248,-0.637,-2.116,2.753,-2.126,-1.993,-1.401,-1.167,-1.138,-0.819,0.503,2.568,0.088
'0:00.527',-1.01,2.308,3.32,-0.648,-2.166,2.814,-2.166,-2.079,-1.445,-1.175,-1.139,-0.814,0.493,2.624,0.104
'0:00.528',-1.032,2.347,3.381,-0.657,-2.207,2.864,-2.192,-2.141,-1.474,-1.181,-1.149,-0.818,0.488,2.667,0.117
'0:00.529',-1.069,2.397,3.467,-0.663,-2.268,2.932,-2.229,-2.209,-1.506,-1.187,-1.149,-0.814,0.471,2.735,0.124
'0:00.530',-1.122,2.42,3.542,-0.648,-2.333,2.981,-2.231,-2.253,-1.534,-1.194,-1.155,-0.815,0.446,2.78,0.124
'0:00.531',-1.159,2.427,3.587,-0.633,-2.373,3.006,-2.201,-2.261,-1.54,-1.192,-1.174,-0.82,0.425,2.801,0.121
'0:00.532',-1.185,2.438,3.624,-0.626,-2.405,3.031,-2.187,-2.26,-1.538,-1.178,-1.187,-0.819,0.412,2.824,0.122
'0:00.533',-1.208,2.423,3.631,-0.608,-2.42,3.027,-2.156,-2.225,-1.494,-1.132,-1.194,-0.797,0.412,2.811,0.11
'0:00.534',-1.232,2.389,3.62,-0.579,-2.425,3.005,-2.143,-2.223,-1.49,-1.125,-1.21,-0.806,0.391,2.792,0.111
'0:00.535',-1.256,2.371,3.628,-0.557,-2.442,2.999,-2.159,-2.272,-1.54,-1.16,-1.232,-0.839,0.36,2.793,0.132
'0:00.536',-1.268,2.38,3.648,-0.555,-2.458,3.014,-2.165,-2.304,-1.571,-1.179,-1.245,-0.854,0.341,2.803,0.143
'0:00.537',-1.283,2.369,3.652,-0.542,-2.467,3.011,-2.155,-2.323,-1.606,-1.214,-1.275,-0.89,0.303,2.79,0.15
'0:00.538',-1.304,2.345,3.649,-0.52,-2.477,2.997,-2.155,-2.348,-1.661,-1.274,-1.308,-0.946,0.252,2.775,0.166
'0:00.539',-1.323,2.299,3.622,-0.487,-2.471,2.96,-2.163,-2.36,-1.708,-1.34,-1.349,-1.008,0.198,2.745,0.189
'0:00.540',-1.335,2.225,3.561,-0.446,-2.447,2.893,-2.159,-2.361,-1.75,-1.415,-1.417,-1.095,0.129,2.679,0.204
'0:00.541',-1.35,2.15,3.499,-0.4,-2.425,2.825,-2.151,-2.341,-1.767,-1.476,-1.478,-1.18,0.06,2.613,0.214
'0:00.542',-1.37,2.064,3.435,-0.347,-2.402,2.749,-2.132,-2.304,-1.765,-1.514,-1.532,-1.244,0.002,2.537,0.225
'0:00.543',-1.373,2.012,3.385,-0.319,-2.38,2.699,-2.143,-2.307,-1.8,-1.579,-1.584,-1.32,-0.058,2.487,0.243
'0:00.544',-1.381,1.972,3.353,-0.295,-2.368,2.663,-2.163,-2.316,-1.843,-1.649,-1.629,-1.389,-0.101,2.458,0.276
'0:00.545',-1.405,1.902,3.308,-0.248,-2.356,2.604,-2.143,-2.289,-1.869,-1.705,-1.679,-1.448,-0.147,2.393,0.297
'0:00.546',-1.418,1.827,3.245,-0.204,-2.332,2.537,-2.117,-2.253,-1.897,-1.773,-1.734,-1.521,-0.209,2.324,0.308
'0:00.547',-1.431,1.772,3.204,-0.17,-2.317,2.487,-2.106,-2.228,-1.928,-1.84,-1.766,-1.576,-0.247,2.276,0.327
'0:00.548',-1.446,1.726,3.174,-0.14,-2.31,2.45,-2.095,-2.207,-1.956,-1.894,-1.792,-1.617,-0.275,2.235,0.338
'0:00.549',-1.448,1.675,3.124,-0.114,-2.286,2.4,-2.064,-2.166,-1.964,-1.933,-1.821,-1.653,-0.301,2.18,0.334
'0:00.550',-1.456,1.632,3.088,-0.088,-2.272,2.36,-2.036,-2.128,-1.976,-1.974,-1.844,-1.686,-0.332,2.136,0.327
'0:00.551',-1.468,1.594,3.063,-0.063,-2.265,2.329,-2.013,-2.097,-1.994,-2.018,-1.865,-1.718,-0.36,2.106,0.327
'0:00.552',-1.469,1.548,3.018,-0.039,-2.244,2.283,-2.001,-2.071,-2.017,-2.065,-1.883,-1.753,-0.382,2.065,0.332
'0:00.553',-1.462,1.504,2.967,-0.021,-2.215,2.236,-2.005,-2.053,-2.036,-2.104,-1.9,-1.782,-0.396,2.024,0.339
'0:00.554',-1.458,1.466,2.925,-0.004,-2.192,2.196,-2.002,-2.027,-2.041,-2.126,-1.907,-1.794,-0.4,1.981,0.347
'0:00.555',-1.46,1.431,2.892,0.015,-2.176,2.162,-1.992,-2.002,-2.042,-2.139,-1.917,-1.808,-0.405,1.946,0.35
'0:00.556',-1.468,1.403,2.871,0.033,-2.17,2.136,-1.974,-1.974,-2.03,-2.138,-1.915,-1.808,-0.408,1.923,0.342
'0:00.557',-1.47,1.379,2.849,0.045,-2.159,2.114,-1.951,-1.935,-2.001,-2.119,-1.91,-1.794,-0.398,1.901,0.327
'0:00.558',-1.452,1.366,2.819,0.043,-2.135,2.092,-1.923,-1.893,-1.971,-2.103,-1.912,-1.792,-0.386,1.879,0.312
'0:00.559',-1.437,1.357,2.795,0.04,-2.116,2.076,-1.899,-1.859,-1.949,-2.094,-1.909,-1.79,-0.379,1.861,0.296
'0:00.560',-1.427,1.348,2.776,0.04,-2.102,2.062,-1.877,-1.823,-1.923,-2.075,-1.902,-1.777,-0.363,1.855,0.282
'0:00.561',-1.419,1.343,2.762,0.038,-2.091,2.052,-1.838,-1.779,-1.89,-2.051,-1.893,-1.763,-0.351,1.847,0.262
'0:00.562',-1.414,1.34,2.755,0.037,-2.084,2.047,-1.806,-1.74,-1.856,-2.026,-1.881,-1.745,-0.335,1.837,0.24
'0:00.563',-1.408,1.34,2.749,0.034,-2.079,2.045,-1.782,-1.696,-1.817,-1.996,-1.867,-1.728,-0.316,1.837,0.223
'0:00.564',-1.397,1.335,2.732,0.032,-2.065,2.034,-1.75,-1.659,-1.793,-1.986,-1.869,-1.725,-0.311,1.827,0.205
'0:00.565',-1.387,1.325,2.712,0.032,-2.05,2.018,-1.731,-1.633,-1.771,-1.976,-1.872,-1.723,-0.296,1.805,0.197
'0:00.566',-1.376,1.325,2.701,0.025,-2.038,2.013,-1.725,-1.609,-1.746,-1.955,-1.861,-1.71,-0.275,1.8,0.188
'0:00.567',-1.355,1.334,2.69,0.011,-2.022,2.012,-1.71,-1.586,-1.732,-1.946,-1.853,-1.7,-0.265,1.8,0.178
'0:00.568',-1.351,1.333,2.683,0.009,-2.017,2.008,-1.703,-1.569,-1.72,-1.94,-1.846,-1.696,-0.262,1.796,0.168
'0:00.569',-1.362,1.323,2.686,0.019,-2.024,2.005,-1.695,-1.56,-1.712,-1.935,-1.842,-1.693,-0.263,1.792,0.156
'0:00.570',-1.357,1.315,2.673,0.021,-2.015,1.994,-1.693,-1.552,-1.708,-1.937,-1.849,-1.697,-0.264,1.784,0.151
'0:00.571',-1.356,1.306,2.663,0.025,-2.01,1.985,-1.694,-1.547,-1.705,-1.938,-1.855,-1.702,-0.265,1.772,0.155
'0:00.572',-1.359,1.312,2.672,0.024,-2.015,1.992,-1.675,-1.531,-1.69,-1.927,-1.847,-1.692,-0.263,1.776,0.149
'0:00.573',-1.357,1.312,2.67,0.022,-2.013,1.991,-1.675,-1.518,-1.676,-1.915,-1.835,-1.681,-0.255,1.788,0.146
'0:00.574',-1.349,1.316,2.665,0.017,-2.007,1.99,-1.673,-1.511,-1.668,-1.91,-1.83,-1.676,-0.244,1.792,0.147
'0:00.575',-1.341,1.323,2.665,0.009,-2.003,1.994,-1.667,-1.505,-1.659,-1.909,-1.836,-1.678,-0.246,1.794,0.142
'0:00.576',-1.34,1.323,2.664,0.008,-2.002,1.994,-1.668,-1.5,-1.657,-1.911,-1.837,-1.68,-0.251,1.788,0.139
'0:00.577',-1.337,1.326,2.664,0.006,-2.001,1.995,-1.663,-1.493,-1.653,-1.907,-1.832,-1.677,-0.246,1.789,0.135
'0:00.578',-1.34,1.321,2.662,0.009,-2.001,1.992,-1.663,-1.494,-1.655,-1.912,-1.836,-1.682,-0.254,1.796,0.129
'0:00.579',-1.339,1.326,2.666,0.006,-2.002,1.996,-1.661,-1.496,-1.657,-1.914,-1.837,-1.683,-0.254,1.799,0.127
'0:00.580',-1.338,1.326,2.664,0.006,-2.001,1.996,-1.659,-1.489,-1.652,-1.911,-1.835,-1.681,-0.247,1.794,0.129
'0:00.581',-1.337,1.319,2.656,0.009,-1.996,1.988,-1.656,-1.483,-1.65,-1.911,-1.837,-1.683,-0.247,1.784,0.127
'0:00.582',-1.335,1.319,2.654,0.008,-1.994,1.986,-1.657,-1.482,-1.649,-1.911,-1.84,-1.685,-0.251,1.783,0.12
'0:00.583',-1.335,1.312,2.648,0.011,-1.992,1.98,-1.661,-1.484,-1.653,-1.915,-1.838,-1.688,-0.254,1.785,0.121
'0:00.584',-1.326,1.318,2.644,0.004,-1.985,1.981,-1.662,-1.484,-1.653,-1.915,-1.833,-1.687,-0.253,1.784,0.122
'0:00.585',-1.331,1.319,2.65,0.006,-1.99,1.984,-1.659,-1.48,-1.651,-1.919,-1.842,-1.694,-0.261,1.784,0.12
'0:00.586',-1.342,1.308,2.651,0.017,-1.996,1.98,-1.66,-1.481,-1.654,-1.925,-1.847,-1.7,-0.262,1.786,0.121
'0:00.587',-1.337,1.31,2.648,0.013,-1.993,1.98,-1.659,-1.478,-1.651,-1.922,-1.841,-1.696,-0.256,1.787,0.118
'0:00.588',-1.34,1.302,2.643,0.019,-1.991,1.972,-1.658,-1.479,-1.651,-1.923,-1.843,-1.696,-0.258,1.782,0.119
'0:00.589',-1.341,1.295,2.636,0.023,-1.989,1.966,-1.661,-1.483,-1.655,-1.925,-1.845,-1.699,-0.257,1.776,0.122
'0:00.590',-1.341,1.294,2.636,0.024,-1.988,1.965,-1.659,-1.48,-1.655,-1.922,-1.839,-1.694,-0.252,1.776,0.121
'0:00.591',-1.331,1.3,2.632,0.015,-1.982,1.966,-1.659,-1.48,-1.652,-1.92,-1.836,-1.692,-0.248,1.778,0.12
'0:00.592',-1.317,1.31,2.628,0.004,-1.972,1.969,-1.657,-1.475,-1.649,-1.92,-1.841,-1.694,-0.247,1.78,0.122
'0:00.593',-1.322,1.308,2.631,0.006,-1.976,1.97,-1.651,-1.472,-1.646,-1.917,-1.837,-1.691,-0.244,1.782,0.12
'0:00.594',-1.324,1.307,2.631,0.009,-1.978,1.97,-1.653,-1.472,-1.646,-1.918,-1.839,-1.69,-0.243,1.775,0.12
'0:00.595',-1.329,1.302,2.632,0.013,-1.98,1.967,-1.654,-1.474,-1.648,-1.921,-1.848,-1.695,-0.246,1.773,0.121
'0:00.596',-1.321,1.31,2.631,0.005,-1.976,1.97,-1.647,-1.468,-1.645,-1.918,-1.841,-1.692,-0.244,1.78,0.117
'0:00.597',-1.314,1.319,2.634,-0.003,-1.974,1.976,-1.645,-1.459,-1.638,-1.911,-1.834,-1.685,-0.239,1.783,0.115
'0:00.598',-1.329,1.31,2.64,0.01,-1.985,1.975,-1.645,-1.458,-1.633,-1.905,-1.835,-1.681,-0.238,1.781,0.117
'0:00.599',-1.337,1.305,2.643,0.016,-1.99,1.974,-1.641,-1.46,-1.635,-1.909,-1.835,-1.683,-0.243,1.782,0.115
'0:00.600',-1.331,1.315,2.647,0.009,-1.989,1.98,-1.645,-1.458,-1.631,-1.905,-1.831,-1.68,-0.242,1.786,0.115
'0:00.601',-1.33,1.314,2.644,0.008,-1.988,1.98,-1.651,-1.46,-1.631,-1.905,-1.834,-1.681,-0.238,1.786,0.117
'0:00.602',-1.341,1.302,2.645,0.019,-1.994,1.974,-1.649,-1.466,-1.642,-1.913,-1.839,-1.688,-0.244,1.784,0.114
'0:00.603',-1.337,1.308,2.645,0.014,-1.99,1.976,-1.647,-1.464,-1.637,-1.908,-1.834,-1.684,-0.241,1.787,0.112
'0:00.604',-1.329,1.312,2.641,0.009,-1.985,1.976,-1.646,-1.463,-1.635,-1.906,-1.831,-1.681,-0.24,1.79,0.112
'0:00.605',-1.339,1.31,2.648,0.015,-1.994,1.979,-1.64,-1.457,-1.63,-1.901,-1.829,-1.678,-0.241,1.788,0.11
'0:00.606',-1.341,1.304,2.646,0.018,-1.993,1.975,-1.642,-1.46,-1.629,-1.904,-1.837,-1.688,-0.246,1.786,0.112
'0:00.607',-1.339,1.304,2.643,0.018,-1.992,1.974,-1.639,-1.465,-1.636,-1.909,-1.834,-1.688,-0.247,1.789,0.109
'0:00.608',-1.337,1.306,2.643,0.016,-1.99,1.974,-1.639,-1.46,-1.634,-1.906,-1.831,-1.685,-0.244,1.788,0.107
'0:00.609',-1.333,1.298,2.631,0.017,-1.982,1.965,-1.653,-1.466,-1.643,-1.919,-1.847,-1.704,-0.254,1.779,0.11
'0:00.610',-1.341,1.296,2.637,0.022,-1.989,1.966,-1.649,-1.467,-1.644,-1.919,-1.845,-1.702,-0.251,1.78,0.11
'0:00.611',-1.35,1.296,2.646,0.028,-1.998,1.97,-1.64,-1.46,-1.635,-1.907,-1.837,-1.692,-0.245,1.785,0.104
'0:00.612',-1.349,1.29,2.639,0.029,-1.994,1.965,-1.646,-1.464,-1.637,-1.907,-1.835,-1.688,-0.241,1.782,0.102
'0:00.613',-1.343,1.292,2.635,0.026,-1.99,1.964,-1.65,-1.467,-1.64,-1.911,-1.838,-1.69,-0.24,1.782,0.105
'0:00.614',-1.341,1.298,2.64,0.022,-1.99,1.969,-1.645,-1.462,-1.637,-1.912,-1.842,-1.696,-0.247,1.784,0.106
'0:00.615',-1.345,1.304,2.649,0.021,-1.997,1.976,-1.639,-1.456,-1.632,-1.906,-1.839,-1.688,-0.245,1.791,0.106
'0:00.616',-1.341,1.306,2.647,0.018,-1.994,1.976,-1.638,-1.45,-1.627,-1.899,-1.833,-1.683,-0.237,1.798,0.107
'0:00.617',-1.338,1.305,2.644,0.017,-1.991,1.974,-1.641,-1.454,-1.628,-1.9,-1.829,-1.679,-0.238,1.794,0.103
'0:00.618',-1.345,1.302,2.646,0.021,-1.995,1.974,-1.639,-1.456,-1.629,-1.901,-1.833,-1.678,-0.237,1.792,0.1
'0:00.619',-1.339,1.296,2.635,0.021,-1.986,1.966,-1.644,-1.456,-1.629,-1.901,-1.833,-1.683,-0.232,1.791,0.103
'0:00.620',-1.339,1.294,2.635,0.022,-1.987,1.964,-1.645,-1.46,-1.629,-1.902,-1.833,-1.685,-0.237,1.79,0.103
'0:00.621',-1.347,1.29,2.638,0.029,-1.992,1.964,-1.644,-1.46,-1.628,-1.905,-1.835,-1.69,-0.24,1.788,0.101
'0:00.622',-1.357,1.292,2.649,0.032,-2.003,1.971,-1.64,-1.456,-1.623,-1.899,-1.826,-1.679,-0.232,1.783,0.096
'0:00.623',-1.347,1.298,2.646,0.024,-1.996,1.972,-1.644,-1.46,-1.629,-1.905,-1.827,-1.682,-0.228,1.775,0.099
'0:00.624',-1.331,1.299,2.63,0.016,-1.98,1.964,-1.651,-1.466,-1.639,-1.921,-1.84,-1.703,-0.239,1.783,0.101
'0:00.625',-1.339,1.298,2.638,0.02,-1.988,1.968,-1.648,-1.464,-1.635,-1.919,-1.837,-1.7,-0.241,1.797,0.098
'0:00.626',-1.341,1.296,2.638,0.022,-1.99,1.966,-1.652,-1.464,-1.638,-1.92,-1.837,-1.698,-0.238,1.786,0.099
'0:00.627',-1.348,1.293,2.641,0.028,-1.994,1.967,-1.652,-1.464,-1.635,-1.915,-1.84,-1.698,-0.24,1.782,0.099
'0:00.628',-1.347,1.299,2.646,0.024,-1.996,1.972,-1.645,-1.456,-1.625,-1.903,-1.831,-1.685,-0.233,1.794,0.097
'0:00.629',-1.339,1.302,2.643,0.018,-1.991,1.972,-1.647,-1.454,-1.621,-1.897,-1.825,-1.675,-0.223,1.795,0.1
'0:00.630',-1.352,1.294,2.646,0.029,-1.999,1.97,-1.655,-1.458,-1.621,-1.899,-1.829,-1.678,-0.224,1.794,0.101
'0:00.631',-1.356,1.289,2.646,0.034,-2.001,1.967,-1.657,-1.46,-1.625,-1.905,-1.833,-1.682,-0.226,1.798,0.101
'0:00.632',-1.345,1.295,2.64,0.025,-1.992,1.968,-1.653,-1.46,-1.624,-1.903,-1.831,-1.679,-0.224,1.8,0.106
'0:00.633',-1.341,1.297,2.638,0.021,-1.989,1.968,-1.651,-1.462,-1.625,-1.903,-1.831,-1.679,-0.225,1.798,0.108
'0:00.634',-1.339,1.29,2.631,0.025,-1.985,1.961,-1.657,-1.466,-1.628,-1.902,-1.833,-1.679,-0.221,1.793,0.112
'0:00.635',-1.338,1.293,2.631,0.022,-1.985,1.962,-1.649,-1.457,-1.619,-1.891,-1.827,-1.669,-0.217,1.787,0.106
'0:00.636',-1.348,1.298,2.646,0.025,-1.997,1.972,-1.641,-1.455,-1.613,-1.884,-1.823,-1.661,-0.215,1.787,0.1
'0:00.637',-1.353,1.296,2.649,0.029,-2.001,1.972,-1.646,-1.454,-1.613,-1.885,-1.82,-1.662,-0.213,1.792,0.1
'0:00.638',-1.35,1.288,2.639,0.03,-1.995,1.964,-1.649,-1.45,-1.615,-1.887,-1.819,-1.661,-0.212,1.794,0.099
'0:00.639',-1.348,1.289,2.638,0.029,-1.993,1.963,-1.649,-1.452,-1.615,-1.883,-1.816,-1.657,-0.208,1.794,0.1
'0:00.640',-1.345,1.296,2.642,0.025,-1.994,1.968,-1.649,-1.45,-1.611,-1.879,-1.81,-1.653,-0.203,1.796,0.095
'0:00.641',-1.348,1.292,2.641,0.028,-1.994,1.967,-1.655,-1.454,-1.613,-1.883,-1.812,-1.657,-0.206,1.795,0.096
'0:00.642',-1.349,1.294,2.643,0.028,-1.996,1.969,-1.65,-1.452,-1.611,-1.881,-1.813,-1.657,-0.209,1.798,0.096
'0:00.643',-1.358,1.282,2.642,0.037,-2,1.962,-1.655,-1.454,-1.617,-1.887,-1.823,-1.665,-0.214,1.792,0.096
'0:00.644',-1.36,1.276,2.636,0.043,-1.998,1.956,-1.663,-1.461,-1.623,-1.892,-1.828,-1.669,-0.213,1.786,0.101
'0:00.645',-1.349,1.292,2.641,0.028,-1.994,1.967,-1.652,-1.448,-1.607,-1.875,-1.81,-1.651,-0.201,1.8,0.098
'0:00.646',-1.344,1.294,2.639,0.025,-1.991,1.966,-1.653,-1.452,-1.607,-1.876,-1.813,-1.655,-0.2,1.8,0.102
'0:00.647',-1.347,1.288,2.635,0.029,-1.99,1.961,-1.657,-1.456,-1.613,-1.883,-1.821,-1.663,-0.203,1.796,0.102
'0:00.648',-1.353,1.283,2.636,0.035,-1.994,1.96,-1.66,-1.454,-1.613,-1.883,-1.819,-1.66,-0.2,1.801,0.102
'0:00.649',-1.349,1.286,2.636,0.031,-1.992,1.962,-1.659,-1.454,-1.614,-1.883,-1.821,-1.661,-0.203,1.802,0.103
'0:00.650',-1.349,1.294,2.643,0.028,-1.996,1.968,-1.655,-1.45,-1.608,-1.874,-1.813,-1.651,-0.198,1.806,0.099
'0:00.651',-1.357,1.29,2.647,0.034,-2.002,1.968,-1.655,-1.448,-1.605,-1.871,-1.813,-1.649,-0.195,1.804,0.1
'0:00.652',-1.353,1.291,2.646,0.031,-2,1.968,-1.654,-1.452,-1.607,-1.877,-1.819,-1.657,-0.201,1.806,0.101
'0:00.653',-1.348,1.293,2.642,0.028,-1.995,1.968,-1.655,-1.452,-1.607,-1.881,-1.819,-1.659,-0.192,1.813,0.109
'0:00.654',-1.341,1.297,2.638,0.022,-1.99,1.968,-1.655,-1.449,-1.603,-1.877,-1.819,-1.658,-0.19,1.812,0.108
'0:00.655',-1.343,1.3,2.643,0.021,-1.993,1.971,-1.657,-1.448,-1.601,-1.872,-1.813,-1.654,-0.193,1.812,0.104
'0:00.656',-1.353,1.298,2.651,0.028,-2.002,1.974,-1.662,-1.454,-1.605,-1.875,-1.817,-1.656,-0.195,1.804,0.104
'0:00.657',-1.351,1.304,2.656,0.024,-2.004,1.98,-1.657,-1.45,-1.601,-1.869,-1.808,-1.649,-0.191,1.802,0.097
'0:00.658',-1.344,1.31,2.655,0.017,-2,1.982,-1.653,-1.442,-1.591,-1.857,-1.797,-1.635,-0.174,1.811,0.1
'0:00.659',-1.341,1.31,2.652,0.016,-1.997,1.981,-1.657,-1.446,-1.595,-1.861,-1.804,-1.643,-0.177,1.815,0.101
'0:00.660',-1.339,1.31,2.649,0.015,-1.994,1.979,-1.661,-1.45,-1.597,-1.863,-1.802,-1.644,-0.179,1.813,0.097
'0:00.661',-1.337,1.311,2.648,0.013,-1.993,1.98,-1.663,-1.452,-1.597,-1.863,-1.802,-1.643,-0.182,1.815,0.094
'0:00.662',-1.34,1.311,2.651,0.014,-1.996,1.982,-1.665,-1.451,-1.597,-1.861,-1.805,-1.643,-0.182,1.821,0.099
'0:00.663',-1.337,1.319,2.656,0.009,-1.997,1.988,-1.659,-1.444,-1.587,-1.851,-1.794,-1.629,-0.171,1.822,0.101
'0:00.664',-1.333,1.325,2.659,0.004,-1.996,1.992,-1.655,-1.438,-1.581,-1.845,-1.785,-1.622,-0.172,1.821,0.093
'0:00.665',-1.325,1.325,2.65,0,-1.987,1.987,-1.658,-1.441,-1.585,-1.851,-1.792,-1.629,-0.177,1.818,0.093
'0:00.666',-1.319,1.325,2.644,-0.003,-1.982,1.984,-1.665,-1.445,-1.589,-1.855,-1.794,-1.633,-0.177,1.819,0.102
'0:00.667',-1.322,1.327,2.65,-0.002,-1.986,1.988,-1.667,-1.444,-1.587,-1.851,-1.788,-1.629,-0.174,1.821,0.105
'0:00.668',-1.323,1.335,2.659,-0.006,-1.992,1.997,-1.66,-1.44,-1.579,-1.841,-1.782,-1.621,-0.169,1.822,0.099
'0:00.669',-1.32,1.337,2.658,-0.009,-1.988,1.997,-1.656,-1.438,-1.576,-1.841,-1.782,-1.621,-0.17,1.821,0.102
'0:00.670',-1.321,1.333,2.655,-0.005,-1.988,1.993,-1.659,-1.44,-1.579,-1.844,-1.786,-1.625,-0.18,1.82,0.098
'0:00.671',-1.319,1.333,2.652,-0.006,-1.986,1.992,-1.661,-1.443,-1.581,-1.845,-1.784,-1.626,-0.18,1.821,0.097
'0:00.672',-1.305,1.34,2.646,-0.018,-1.976,1.993,-1.661,-1.438,-1.575,-1.839,-1.778,-1.619,-0.164,1.821,0.103
'0:00.673',-1.304,1.352,2.655,-0.024,-1.98,2.003,-1.657,-1.433,-1.569,-1.833,-1.774,-1.611,-0.161,1.833,0.098
'0:00.674',-1.309,1.353,2.662,-0.022,-1.986,2.007,-1.658,-1.433,-1.566,-1.83,-1.776,-1.613,-0.164,1.834,0.089
'0:00.675',-1.307,1.352,2.659,-0.022,-1.984,2.006,-1.663,-1.435,-1.567,-1.829,-1.776,-1.611,-0.161,1.825,0.088
'0:00.676',-1.303,1.351,2.655,-0.024,-1.979,2.003,-1.667,-1.437,-1.567,-1.831,-1.775,-1.609,-0.154,1.824,0.095
'0:00.677',-1.3,1.351,2.651,-0.025,-1.976,2.001,-1.666,-1.434,-1.565,-1.829,-1.779,-1.611,-0.159,1.825,0.097
'0:00.678',-1.304,1.351,2.655,-0.024,-1.979,2.002,-1.667,-1.433,-1.565,-1.829,-1.776,-1.609,-0.166,1.833,0.097
'0:00.679',-1.302,1.353,2.655,-0.026,-1.978,2.005,-1.665,-1.431,-1.561,-1.823,-1.766,-1.601,-0.159,1.845,0.103
'0:00.680',-1.292,1.357,2.65,-0.033,-1.97,2.003,-1.668,-1.433,-1.563,-1.823,-1.768,-1.602,-0.15,1.837,0.102
'0:00.681',-1.29,1.356,2.647,-0.033,-1.969,2.002,-1.675,-1.438,-1.563,-1.821,-1.767,-1.6,-0.145,1.833,0.101
'0:00.682',-1.29,1.363,2.652,-0.036,-1.971,2.007,-1.671,-1.431,-1.554,-1.807,-1.758,-1.589,-0.136,1.841,0.1
'0:00.683',-1.288,1.362,2.65,-0.037,-1.969,2.006,-1.679,-1.435,-1.559,-1.81,-1.758,-1.591,-0.135,1.834,0.102
'0:00.684',-1.286,1.363,2.65,-0.039,-1.968,2.006,-1.685,-1.438,-1.56,-1.811,-1.756,-1.589,-0.14,1.836,0.102
'0:00.685',-1.284,1.371,2.656,-0.043,-1.97,2.014,-1.672,-1.43,-1.555,-1.806,-1.753,-1.583,-0.139,1.847,0.098
'0:00.686',-1.286,1.373,2.659,-0.043,-1.973,2.016,-1.671,-1.429,-1.553,-1.802,-1.749,-1.579,-0.133,1.853,0.095
'0:00.687',-1.28,1.376,2.657,-0.048,-1.969,2.017,-1.678,-1.425,-1.546,-1.792,-1.74,-1.567,-0.123,1.851,0.096
'0:00.688',-1.277,1.379,2.656,-0.051,-1.966,2.018,-1.677,-1.424,-1.546,-1.792,-1.738,-1.565,-0.123,1.849,0.095
'0:00.689',-1.27,1.385,2.656,-0.058,-1.964,2.021,-1.683,-1.427,-1.548,-1.794,-1.734,-1.567,-0.123,1.855,0.093
'0:00.690',-1.27,1.387,2.656,-0.058,-1.964,2.022,-1.683,-1.421,-1.542,-1.787,-1.73,-1.559,-0.112,1.853,0.095
'0:00.691',-1.271,1.389,2.66,-0.059,-1.966,2.025,-1.683,-1.421,-1.541,-1.784,-1.726,-1.555,-0.113,1.855,0.095
'0:00.692',-1.258,1.391,2.651,-0.067,-1.954,2.021,-1.691,-1.427,-1.543,-1.786,-1.728,-1.558,-0.114,1.857,0.096
'0:00.693',-1.25,1.395,2.646,-0.072,-1.948,2.021,-1.688,-1.428,-1.542,-1.787,-1.73,-1.558,-0.108,1.857,0.095
'0:00.694',-1.252,1.402,2.655,-0.075,-1.954,2.029,-1.687,-1.425,-1.538,-1.78,-1.72,-1.547,-0.102,1.863,0.093
'0:00.695',-1.263,1.397,2.661,-0.067,-1.962,2.03,-1.691,-1.425,-1.536,-1.774,-1.71,-1.54,-0.097,1.866,0.096
'0:00.696',-1.262,1.395,2.659,-0.067,-1.96,2.027,-1.695,-1.43,-1.544,-1.78,-1.712,-1.544,-0.098,1.87,0.097
'0:00.697',-1.251,1.403,2.655,-0.076,-1.952,2.029,-1.698,-1.429,-1.54,-1.778,-1.713,-1.543,-0.093,1.876,0.095
'0:00.698',-1.246,1.409,2.656,-0.082,-1.951,2.033,-1.702,-1.427,-1.535,-1.772,-1.709,-1.537,-0.091,1.878,0.095
'0:00.699',-1.242,1.404,2.647,-0.081,-1.945,2.026,-1.698,-1.425,-1.536,-1.771,-1.71,-1.537,-0.091,1.87,0.1
'0:00.700',-1.234,1.411,2.644,-0.088,-1.94,2.027,-1.694,-1.421,-1.529,-1.763,-1.704,-1.533,-0.086,1.864,0.097
'0:00.701',-1.231,1.423,2.654,-0.096,-1.942,2.038,-1.706,-1.424,-1.53,-1.761,-1.703,-1.53,-0.081,1.871,0.096
'0:00.702',-1.232,1.427,2.659,-0.097,-1.946,2.042,-1.71,-1.425,-1.53,-1.761,-1.702,-1.528,-0.076,1.881,0.099
'0:00.703',-1.231,1.429,2.661,-0.1,-1.946,2.046,-1.706,-1.422,-1.526,-1.758,-1.696,-1.522,-0.074,1.883,0.098
'0:00.704',-1.232,1.431,2.663,-0.1,-1.947,2.046,-1.706,-1.421,-1.526,-1.755,-1.693,-1.518,-0.073,1.884,0.098
'0:00.705',-1.226,1.44,2.666,-0.107,-1.946,2.053,-1.705,-1.421,-1.526,-1.753,-1.691,-1.514,-0.069,1.889,0.097
'0:00.706',-1.218,1.443,2.662,-0.112,-1.94,2.053,-1.708,-1.42,-1.524,-1.749,-1.685,-1.51,-0.066,1.89,0.096
'0:00.707',-1.222,1.442,2.664,-0.11,-1.943,2.053,-1.713,-1.419,-1.52,-1.743,-1.679,-1.504,-0.06,1.893,0.095
'0:00.708',-1.224,1.442,2.667,-0.109,-1.946,2.054,-1.722,-1.423,-1.522,-1.746,-1.682,-1.504,-0.057,1.896,0.098
'0:00.709',-1.222,1.44,2.663,-0.109,-1.943,2.052,-1.72,-1.423,-1.522,-1.744,-1.679,-1.502,-0.051,1.899,0.1
'0:00.710',-1.218,1.445,2.663,-0.114,-1.941,2.054,-1.716,-1.417,-1.516,-1.735,-1.673,-1.492,-0.044,1.897,0.096
'0:00.711',-1.216,1.446,2.663,-0.115,-1.94,2.054,-1.72,-1.417,-1.512,-1.731,-1.671,-1.486,-0.038,1.898,0.096
'0:00.712',-1.216,1.448,2.665,-0.117,-1.94,2.057,-1.718,-1.417,-1.512,-1.73,-1.667,-1.484,-0.037,1.901,0.097
'0:00.713',-1.205,1.456,2.662,-0.126,-1.933,2.058,-1.722,-1.418,-1.514,-1.728,-1.663,-1.48,-0.036,1.903,0.097
'0:00.714',-1.198,1.466,2.663,-0.134,-1.931,2.064,-1.722,-1.415,-1.508,-1.716,-1.653,-1.467,-0.022,1.909,0.093
'0:00.715',-1.193,1.473,2.667,-0.14,-1.929,2.07,-1.722,-1.411,-1.502,-1.71,-1.649,-1.462,-0.022,1.916,0.094
'0:00.716',-1.196,1.469,2.665,-0.137,-1.931,2.067,-1.726,-1.418,-1.511,-1.72,-1.657,-1.471,-0.033,1.911,0.097
'0:00.717',-1.191,1.472,2.664,-0.141,-1.927,2.068,-1.724,-1.416,-1.51,-1.718,-1.653,-1.468,-0.028,1.908,0.096
'0:00.718',-1.183,1.482,2.666,-0.149,-1.925,2.074,-1.724,-1.411,-1.502,-1.71,-1.645,-1.46,-0.018,1.913,0.1
'0:00.719',-1.183,1.484,2.667,-0.15,-1.925,2.075,-1.728,-1.417,-1.506,-1.712,-1.641,-1.46,-0.018,1.918,0.1
'0:00.720',-1.183,1.485,2.668,-0.151,-1.925,2.076,-1.734,-1.418,-1.507,-1.712,-1.643,-1.46,-0.018,1.925,0.1
'0:00.721',-1.181,1.488,2.668,-0.153,-1.925,2.078,-1.736,-1.417,-1.507,-1.712,-1.645,-1.459,-0.017,1.925,0.101
'0:00.722',-1.177,1.494,2.671,-0.159,-1.924,2.082,-1.733,-1.415,-1.501,-1.703,-1.631,-1.446,-0.007,1.929,0.098
'0:00.723',-1.183,1.5,2.683,-0.159,-1.933,2.091,-1.73,-1.413,-1.498,-1.696,-1.623,-1.438,-0.005,1.935,0.097
'0:00.724',-1.184,1.497,2.682,-0.157,-1.933,2.09,-1.734,-1.417,-1.504,-1.704,-1.634,-1.447,-0.014,1.932,0.097
'0:00.725',-1.177,1.502,2.679,-0.163,-1.928,2.091,-1.736,-1.415,-1.504,-1.704,-1.631,-1.446,-0.009,1.936,0.096
'0:00.726',-1.17,1.508,2.679,-0.169,-1.925,2.094,-1.735,-1.417,-1.508,-1.706,-1.629,-1.446,-0.004,1.94,0.095
'0:00.727',-1.177,1.503,2.68,-0.163,-1.929,2.092,-1.742,-1.423,-1.51,-1.706,-1.634,-1.447,-0.004,1.938,0.095
'0:00.728',-1.182,1.5,2.683,-0.159,-1.933,2.091,-1.745,-1.423,-1.511,-1.706,-1.632,-1.446,-0.004,1.942,0.092
'0:00.729',-1.169,1.508,2.678,-0.17,-1.924,2.093,-1.742,-1.422,-1.508,-1.703,-1.627,-1.443,-0.004,1.944,0.091
'0:00.730',-1.171,1.51,2.682,-0.17,-1.927,2.096,-1.743,-1.421,-1.506,-1.7,-1.623,-1.439,0.003,1.942,0.093
'0:00.731',-1.177,1.51,2.688,-0.167,-1.932,2.099,-1.74,-1.419,-1.506,-1.7,-1.619,-1.435,0.005,1.944,0.09
'0:00.732',-1.163,1.524,2.688,-0.18,-1.925,2.106,-1.738,-1.416,-1.502,-1.696,-1.619,-1.433,0.004,1.945,0.09
'0:00.733',-1.161,1.527,2.689,-0.182,-1.925,2.108,-1.742,-1.417,-1.5,-1.694,-1.617,-1.432,0.005,1.95,0.091
'0:00.734',-1.171,1.526,2.697,-0.177,-1.934,2.111,-1.742,-1.415,-1.5,-1.69,-1.611,-1.425,0.011,1.956,0.089
'0:00.735',-1.173,1.526,2.7,-0.176,-1.937,2.113,-1.746,-1.417,-1.5,-1.692,-1.609,-1.425,0.015,1.962,0.091
'0:00.736',-1.163,1.53,2.695,-0.183,-1.929,2.112,-1.746,-1.419,-1.501,-1.693,-1.611,-1.428,0.013,1.961,0.096
'0:00.737',-1.15,1.54,2.69,-0.195,-1.92,2.115,-1.748,-1.421,-1.502,-1.692,-1.611,-1.428,0.013,1.957,0.099
'0:00.738',-1.161,1.534,2.696,-0.187,-1.928,2.115,-1.75,-1.423,-1.503,-1.694,-1.609,-1.427,0.013,1.964,0.101
'0:00.739',-1.167,1.542,2.709,-0.188,-1.938,2.126,-1.747,-1.421,-1.502,-1.692,-1.607,-1.425,0.013,1.974,0.103
'0:00.740',-1.161,1.552,2.713,-0.196,-1.937,2.133,-1.746,-1.421,-1.501,-1.69,-1.603,-1.423,0.017,1.978,0.104
'0:00.741',-1.162,1.548,2.71,-0.193,-1.936,2.128,-1.749,-1.421,-1.502,-1.692,-1.602,-1.423,0.018,1.98,0.106
'0:00.742',-1.157,1.554,2.712,-0.199,-1.935,2.133,-1.752,-1.423,-1.502,-1.691,-1.601,-1.422,0.018,1.985,0.102
'0:00.743',-1.155,1.56,2.716,-0.202,-1.936,2.138,-1.754,-1.423,-1.5,-1.689,-1.599,-1.419,0.022,1.982,0.099
'0:00.744',-1.161,1.56,2.721,-0.2,-1.941,2.14,-1.756,-1.423,-1.5,-1.69,-1.599,-1.421,0.023,1.982,0.098
'0:00.745',-1.159,1.56,2.72,-0.201,-1.94,2.14,-1.756,-1.423,-1.499,-1.685,-1.597,-1.416,0.025,1.988,0.096
'0:00.746',-1.156,1.558,2.713,-0.201,-1.935,2.135,-1.759,-1.424,-1.5,-1.679,-1.597,-1.411,0.03,1.988,0.098
'0:00.747',-1.155,1.562,2.717,-0.204,-1.936,2.14,-1.76,-1.428,-1.502,-1.684,-1.601,-1.415,0.026,1.988,0.094
'0:00.748',-1.159,1.565,2.724,-0.203,-1.941,2.144,-1.759,-1.424,-1.498,-1.683,-1.601,-1.415,0.022,1.992,0.09
'0:00.749',-1.163,1.568,2.732,-0.203,-1.948,2.15,-1.756,-1.42,-1.492,-1.675,-1.594,-1.407,0.026,1.996,0.089
'0:00.750',-1.163,1.575,2.738,-0.205,-1.95,2.156,-1.752,-1.419,-1.49,-1.671,-1.593,-1.403,0.028,1.996,0.086
'0:00.751',-1.165,1.565,2.731,-0.2,-1.948,2.147,-1.753,-1.421,-1.492,-1.671,-1.593,-1.403,0.026,1.988,0.086
'0:00.752',-1.168,1.556,2.724,-0.195,-1.946,2.14,-1.75,-1.423,-1.494,-1.673,-1.596,-1.407,0.026,1.98,0.086
'0:00.753',-1.167,1.56,2.728,-0.197,-1.948,2.144,-1.747,-1.423,-1.493,-1.673,-1.597,-1.408,0.025,1.986,0.085
'0:00.754',-1.171,1.562,2.732,-0.196,-1.952,2.147,-1.748,-1.421,-1.493,-1.672,-1.599,-1.409,0.022,1.991,0.083
'0:00.755',-1.179,1.555,2.735,-0.188,-1.956,2.145,-1.751,-1.419,-1.494,-1.671,-1.601,-1.409,0.021,1.99,0.081
'0:00.756',-1.188,1.55,2.739,-0.181,-1.963,2.144,-1.752,-1.423,-1.498,-1.675,-1.602,-1.411,0.019,1.99,0.083
'0:00.757',-1.181,1.556,2.737,-0.188,-1.96,2.147,-1.748,-1.42,-1.495,-1.679,-1.609,-1.419,0.017,1.987,0.087
'0:00.758',-1.179,1.56,2.739,-0.19,-1.959,2.149,-1.744,-1.419,-1.494,-1.679,-1.609,-1.419,0.013,1.992,0.088
'0:00.759',-1.184,1.554,2.739,-0.185,-1.962,2.147,-1.743,-1.423,-1.499,-1.688,-1.611,-1.425,0.007,1.993,0.087
'0:00.760',-1.184,1.55,2.735,-0.183,-1.96,2.143,-1.74,-1.421,-1.498,-1.69,-1.619,-1.433,0,1.986,0.085
'0:00.761',-1.192,1.546,2.739,-0.177,-1.965,2.142,-1.736,-1.421,-1.498,-1.692,-1.621,-1.435,-0.002,1.988,0.086
'0:00.762',-1.196,1.544,2.74,-0.174,-1.968,2.142,-1.735,-1.422,-1.5,-1.696,-1.625,-1.44,-0.004,1.988,0.088
'0:00.763',-1.192,1.547,2.74,-0.177,-1.966,2.143,-1.735,-1.422,-1.502,-1.698,-1.629,-1.444,-0.008,1.988,0.087
'0:00.764',-1.206,1.533,2.74,-0.164,-1.973,2.136,-1.738,-1.429,-1.512,-1.712,-1.639,-1.457,-0.015,1.987,0.086
'0:00.765',-1.22,1.516,2.737,-0.148,-1.978,2.127,-1.74,-1.435,-1.521,-1.72,-1.649,-1.468,-0.022,1.98,0.088
'0:00.766',-1.216,1.518,2.734,-0.151,-1.975,2.126,-1.735,-1.433,-1.519,-1.722,-1.651,-1.471,-0.028,1.978,0.089
'0:00.767',-1.21,1.522,2.733,-0.156,-1.972,2.128,-1.727,-1.425,-1.513,-1.72,-1.649,-1.47,-0.033,1.979,0.086
'0:00.768',-1.216,1.516,2.733,-0.15,-1.974,2.124,-1.722,-1.423,-1.517,-1.724,-1.653,-1.476,-0.034,1.972,0.088
'0:00.769',-1.23,1.502,2.732,-0.137,-1.98,2.117,-1.722,-1.427,-1.521,-1.732,-1.665,-1.488,-0.044,1.966,0.087
'0:00.770',-1.234,1.498,2.732,-0.133,-1.982,2.115,-1.719,-1.427,-1.524,-1.738,-1.673,-1.496,-0.055,1.965,0.085
'0:00.771',-1.234,1.496,2.731,-0.131,-1.982,2.113,-1.715,-1.427,-1.526,-1.74,-1.673,-1.498,-0.054,1.96,0.086
'0:00.772',-1.236,1.492,2.728,-0.128,-1.982,2.11,-1.708,-1.425,-1.527,-1.744,-1.679,-1.504,-0.059,1.954,0.085
'0:00.773',-1.24,1.488,2.728,-0.123,-1.984,2.108,-1.707,-1.427,-1.532,-1.749,-1.683,-1.51,-0.068,1.954,0.085
'0:00.774',-1.241,1.482,2.724,-0.12,-1.982,2.103,-1.702,-1.431,-1.536,-1.756,-1.692,-1.519,-0.077,1.958,0.084
'0:00.775',-1.246,1.477,2.723,-0.116,-1.984,2.1,-1.696,-1.429,-1.54,-1.762,-1.694,-1.523,-0.085,1.952,0.084
'0:00.776',-1.256,1.468,2.725,-0.106,-1.99,2.096,-1.697,-1.43,-1.539,-1.764,-1.696,-1.523,-0.084,1.948,0.086
'0:00.777',-1.26,1.46,2.72,-0.1,-1.99,2.09,-1.696,-1.435,-1.546,-1.775,-1.709,-1.536,-0.092,1.944,0.091
'0:00.778',-1.266,1.45,2.716,-0.092,-1.991,2.083,-1.698,-1.439,-1.554,-1.783,-1.715,-1.544,-0.102,1.933,0.09
'0:00.779',-1.272,1.444,2.716,-0.086,-1.994,2.079,-1.694,-1.437,-1.554,-1.784,-1.716,-1.544,-0.105,1.927,0.086
'0:00.780',-1.273,1.438,2.712,-0.083,-1.992,2.075,-1.691,-1.438,-1.558,-1.792,-1.723,-1.552,-0.114,1.923,0.086
'0:00.781',-1.274,1.431,2.706,-0.078,-1.99,2.068,-1.688,-1.444,-1.565,-1.8,-1.732,-1.565,-0.121,1.915,0.089
'0:00.782',-1.285,1.425,2.711,-0.07,-1.998,2.067,-1.681,-1.442,-1.565,-1.802,-1.732,-1.565,-0.125,1.917,0.089
'0:00.783',-1.285,1.421,2.707,-0.068,-1.996,2.064,-1.676,-1.438,-1.565,-1.802,-1.734,-1.567,-0.127,1.915,0.091
'0:00.784',-1.282,1.417,2.7,-0.068,-1.99,2.058,-1.677,-1.442,-1.571,-1.812,-1.744,-1.578,-0.136,1.905,0.089
'0:00.785',-1.292,1.409,2.701,-0.059,-1.997,2.055,-1.675,-1.443,-1.573,-1.817,-1.75,-1.585,-0.147,1.905,0.084
'0:00.786',-1.294,1.407,2.702,-0.057,-1.998,2.054,-1.675,-1.446,-1.576,-1.821,-1.752,-1.589,-0.149,1.904,0.087
'0:00.787',-1.291,1.405,2.696,-0.057,-1.994,2.05,-1.673,-1.446,-1.581,-1.825,-1.755,-1.595,-0.152,1.895,0.087
'0:00.788',-1.292,1.399,2.691,-0.053,-1.991,2.045,-1.657,-1.442,-1.579,-1.827,-1.758,-1.599,-0.161,1.883,0.082
'0:00.789',-1.29,1.397,2.688,-0.053,-1.989,2.042,-1.653,-1.442,-1.581,-1.831,-1.762,-1.603,-0.166,1.882,0.081
'0:00.790',-1.298,1.388,2.686,-0.045,-1.992,2.037,-1.655,-1.444,-1.584,-1.835,-1.766,-1.607,-0.17,1.879,0.077
'0:00.791',-1.304,1.382,2.687,-0.039,-1.996,2.034,-1.654,-1.446,-1.587,-1.839,-1.77,-1.612,-0.174,1.873,0.074
'0:00.792',-1.31,1.377,2.687,-0.034,-1.998,2.032,-1.655,-1.447,-1.588,-1.841,-1.77,-1.614,-0.176,1.873,0.078
'0:00.793',-1.312,1.369,2.682,-0.029,-1.997,2.026,-1.651,-1.448,-1.591,-1.846,-1.774,-1.62,-0.182,1.866,0.089
'0:00.794',-1.306,1.371,2.677,-0.033,-1.992,2.024,-1.651,-1.45,-1.597,-1.855,-1.786,-1.63,-0.192,1.865,0.092
'0:00.795',-1.308,1.37,2.679,-0.031,-1.994,2.025,-1.647,-1.449,-1.597,-1.857,-1.788,-1.633,-0.198,1.87,0.091
'0:00.796',-1.315,1.365,2.681,-0.025,-1.998,2.023,-1.645,-1.447,-1.596,-1.856,-1.79,-1.633,-0.198,1.867,0.089
'0:00.797',-1.319,1.356,2.675,-0.019,-1.996,2.015,-1.645,-1.45,-1.599,-1.863,-1.796,-1.641,-0.203,1.859,0.087
'0:00.798',-1.321,1.345,2.667,-0.011,-1.994,2.006,-1.643,-1.453,-1.605,-1.873,-1.803,-1.651,-0.213,1.855,0.09
'0:00.799',-1.323,1.337,2.66,-0.006,-1.992,1.998,-1.645,-1.457,-1.609,-1.877,-1.806,-1.653,-0.213,1.853,0.095
'0:00.800',-1.329,1.335,2.663,-0.003,-1.996,1.999,-1.645,-1.458,-1.608,-1.877,-1.802,-1.649,-0.211,1.854,0.097
'0:00.801',-1.339,1.335,2.674,0.003,-2.006,2.005,-1.643,-1.456,-1.607,-1.876,-1.803,-1.653,-0.215,1.855,0.098
'0:00.802',-1.339,1.327,2.666,0.006,-2.002,1.996,-1.648,-1.466,-1.624,-1.897,-1.819,-1.671,-0.227,1.84,0.105
'0:00.803',-1.337,1.319,2.657,0.009,-1.997,1.988,-1.653,-1.476,-1.633,-1.907,-1.827,-1.681,-0.231,1.832,0.11
'0:00.804',-1.341,1.313,2.655,0.013,-1.998,1.984,-1.651,-1.474,-1.629,-1.901,-1.825,-1.677,-0.229,1.831,0.107
'0:00.805',-1.342,1.312,2.655,0.015,-1.998,1.983,-1.651,-1.472,-1.629,-1.899,-1.821,-1.674,-0.227,1.832,0.107
'0:00.806',-1.348,1.313,2.662,0.018,-2.005,1.988,-1.646,-1.47,-1.625,-1.894,-1.818,-1.67,-0.225,1.837,0.106
'0:00.807',-1.351,1.306,2.658,0.022,-2.005,1.982,-1.644,-1.472,-1.633,-1.903,-1.823,-1.676,-0.231,1.831,0.106
'0:00.808',-1.359,1.304,2.664,0.028,-2.012,1.984,-1.645,-1.47,-1.629,-1.897,-1.82,-1.668,-0.225,1.834,0.107
'0:00.809',-1.358,1.299,2.658,0.029,-2.008,1.978,-1.648,-1.475,-1.635,-1.907,-1.83,-1.678,-0.231,1.827,0.109
'0:00.810',-1.347,1.29,2.636,0.029,-1.992,1.963,-1.654,-1.484,-1.648,-1.923,-1.844,-1.698,-0.241,1.816,0.112
'0:00.811',-1.351,1.29,2.64,0.031,-1.996,1.965,-1.649,-1.478,-1.639,-1.907,-1.833,-1.681,-0.231,1.817,0.108
'0:00.812',-1.351,1.294,2.646,0.028,-1.998,1.97,-1.647,-1.476,-1.636,-1.905,-1.831,-1.675,-0.232,1.817,0.104
'0:00.813',-1.355,1.298,2.654,0.029,-2.004,1.976,-1.647,-1.474,-1.633,-1.899,-1.827,-1.668,-0.227,1.823,0.105
'0:00.814',-1.359,1.288,2.647,0.035,-2.003,1.968,-1.645,-1.476,-1.637,-1.905,-1.831,-1.677,-0.233,1.815,0.104
'0:00.815',-1.346,1.287,2.634,0.029,-1.99,1.96,-1.648,-1.483,-1.645,-1.919,-1.842,-1.694,-0.247,1.81,0.105
'0:00.816',-1.34,1.294,2.635,0.023,-1.987,1.964,-1.645,-1.483,-1.645,-1.917,-1.838,-1.688,-0.244,1.812,0.104
'0:00.817',-1.351,1.29,2.641,0.031,-1.996,1.965,-1.645,-1.481,-1.645,-1.915,-1.835,-1.685,-0.244,1.81,0.102
'0:00.818',-1.357,1.288,2.644,0.035,-2.001,1.966,-1.646,-1.483,-1.646,-1.916,-1.833,-1.685,-0.244,1.805,0.101
'0:00.819',-1.353,1.286,2.639,0.034,-1.996,1.962,-1.647,-1.486,-1.651,-1.923,-1.841,-1.694,-0.247,1.802,0.106
'0:00.820',-1.35,1.288,2.639,0.031,-1.994,1.964,-1.645,-1.483,-1.649,-1.921,-1.839,-1.692,-0.248,1.805,0.106
'0:00.821',-1.349,1.293,2.643,0.029,-1.996,1.968,-1.642,-1.482,-1.649,-1.921,-1.837,-1.69,-0.251,1.806,0.105
'0:00.822',-1.36,1.285,2.646,0.037,-2.003,1.966,-1.647,-1.484,-1.651,-1.925,-1.847,-1.694,-0.255,1.808,0.108
'0:00.823',-1.364,1.282,2.647,0.041,-2.006,1.965,-1.646,-1.486,-1.653,-1.925,-1.846,-1.693,-0.252,1.808,0.107
'0:00.824',-1.356,1.284,2.64,0.036,-1.998,1.962,-1.647,-1.49,-1.659,-1.933,-1.848,-1.698,-0.249,1.801,0.116
'0:00.825',-1.357,1.282,2.639,0.037,-1.998,1.96,-1.648,-1.486,-1.658,-1.931,-1.844,-1.694,-0.245,1.798,0.119
'0:00.826',-1.361,1.276,2.638,0.043,-1.999,1.956,-1.645,-1.486,-1.657,-1.931,-1.842,-1.694,-0.25,1.804,0.117
'0:00.827',-1.359,1.271,2.631,0.043,-1.994,1.951,-1.648,-1.49,-1.664,-1.94,-1.849,-1.706,-0.26,1.802,0.12
'0:00.828',-1.361,1.273,2.635,0.044,-1.998,1.954,-1.649,-1.49,-1.663,-1.938,-1.849,-1.703,-0.26,1.8,0.12
'0:00.829',-1.361,1.276,2.636,0.043,-1.998,1.956,-1.649,-1.49,-1.661,-1.935,-1.847,-1.7,-0.256,1.799,0.119
'0:00.830',-1.355,1.279,2.634,0.037,-1.994,1.956,-1.647,-1.49,-1.663,-1.937,-1.848,-1.702,-0.257,1.796,0.119
'0:00.831',-1.351,1.282,2.632,0.035,-1.992,1.957,-1.639,-1.486,-1.659,-1.931,-1.843,-1.7,-0.258,1.798,0.117
'0:00.832',-1.355,1.278,2.634,0.038,-1.994,1.956,-1.64,-1.486,-1.661,-1.93,-1.843,-1.698,-0.26,1.805,0.115
'0:00.833',-1.359,1.279,2.639,0.041,-1.999,1.959,-1.646,-1.492,-1.665,-1.937,-1.847,-1.704,-0.26,1.803,0.116
'0:00.834',-1.354,1.279,2.634,0.037,-1.994,1.956,-1.645,-1.492,-1.663,-1.936,-1.845,-1.704,-0.255,1.792,0.114
'0:00.835',-1.353,1.276,2.629,0.038,-1.991,1.952,-1.643,-1.492,-1.665,-1.937,-1.848,-1.707,-0.259,1.788,0.111
'0:00.836',-1.35,1.28,2.63,0.035,-1.99,1.955,-1.643,-1.49,-1.666,-1.937,-1.849,-1.709,-0.262,1.79,0.11
'0:00.837',-1.351,1.277,2.628,0.037,-1.99,1.953,-1.643,-1.491,-1.669,-1.938,-1.85,-1.709,-0.261,1.794,0.111
'0:00.838',-1.354,1.271,2.626,0.042,-1.99,1.948,-1.642,-1.494,-1.67,-1.941,-1.853,-1.713,-0.264,1.794,0.113
'0:00.839',-1.351,1.276,2.628,0.038,-1.99,1.952,-1.64,-1.49,-1.663,-1.935,-1.848,-1.707,-0.263,1.794,0.108
'0:00.840',-1.358,1.272,2.631,0.043,-1.994,1.951,-1.641,-1.49,-1.663,-1.935,-1.849,-1.708,-0.267,1.794,0.111
'0:00.841',-1.361,1.266,2.627,0.048,-1.994,1.946,-1.647,-1.494,-1.667,-1.939,-1.851,-1.711,-0.267,1.793,0.114
'0:00.842',-1.362,1.268,2.631,0.047,-1.996,1.95,-1.646,-1.494,-1.667,-1.94,-1.853,-1.713,-0.268,1.799,0.111
'0:00.843',-1.363,1.272,2.635,0.045,-1.998,1.954,-1.643,-1.492,-1.665,-1.938,-1.853,-1.71,-0.269,1.8,0.11
'0:00.844',-1.353,1.27,2.624,0.042,-1.989,1.948,-1.648,-1.496,-1.67,-1.94,-1.854,-1.715,-0.265,1.791,0.114
'0:00.845',-1.356,1.266,2.622,0.045,-1.988,1.944,-1.645,-1.499,-1.674,-1.948,-1.861,-1.726,-0.272,1.792,0.114
'0:00.846',-1.357,1.27,2.627,0.043,-1.992,1.949,-1.643,-1.494,-1.669,-1.944,-1.859,-1.723,-0.276,1.797,0.112
'0:00.847',-1.363,1.266,2.63,0.049,-1.996,1.948,-1.651,-1.498,-1.673,-1.947,-1.86,-1.724,-0.277,1.794,0.115
'0:00.848',-1.371,1.268,2.639,0.051,-2.005,1.953,-1.648,-1.496,-1.67,-1.946,-1.857,-1.718,-0.273,1.796,0.113
'0:00.849',-1.359,1.276,2.636,0.042,-1.998,1.956,-1.647,-1.494,-1.669,-1.946,-1.852,-1.716,-0.269,1.798,0.116
'0:00.850',-1.359,1.274,2.634,0.043,-1.996,1.954,-1.65,-1.496,-1.672,-1.95,-1.857,-1.72,-0.274,1.796,0.114
'0:00.851',-1.365,1.276,2.642,0.044,-2.003,1.959,-1.647,-1.496,-1.668,-1.945,-1.857,-1.718,-0.276,1.799,0.112
'0:00.852',-1.369,1.273,2.642,0.048,-2.006,1.958,-1.648,-1.496,-1.667,-1.94,-1.854,-1.714,-0.267,1.796,0.116
'0:00.853',-1.373,1.267,2.639,0.052,-2.006,1.953,-1.651,-1.496,-1.667,-1.935,-1.853,-1.706,-0.259,1.792,0.116
'0:00.854',-1.369,1.268,2.638,0.051,-2.003,1.953,-1.653,-1.501,-1.672,-1.94,-1.859,-1.712,-0.267,1.79,0.114
'0:00.855',-1.364,1.272,2.636,0.046,-2.001,1.954,-1.655,-1.504,-1.675,-1.944,-1.858,-1.712,-0.272,1.79,0.108
'0:00.856',-1.363,1.272,2.636,0.046,-2,1.954,-1.654,-1.501,-1.671,-1.94,-1.856,-1.708,-0.267,1.794,0.111
'0:00.857',-1.365,1.272,2.636,0.046,-2.001,1.954,-1.651,-1.5,-1.67,-1.938,-1.857,-1.708,-0.261,1.796,0.112
'0:00.858',-1.362,1.273,2.635,0.045,-1.999,1.954,-1.652,-1.502,-1.672,-1.938,-1.859,-1.709,-0.259,1.8,0.111
'0:00.859',-1.365,1.274,2.639,0.046,-2.002,1.956,-1.648,-1.501,-1.67,-1.936,-1.859,-1.705,-0.26,1.8,0.114
'0:00.860',-1.371,1.273,2.645,0.049,-2.008,1.959,-1.645,-1.497,-1.666,-1.933,-1.853,-1.7,-0.26,1.796,0.11
'0:00.861',-1.371,1.27,2.643,0.051,-2.007,1.956,-1.649,-1.5,-1.669,-1.938,-1.853,-1.703,-0.262,1.796,0.113
'0:00.862',-1.374,1.268,2.643,0.053,-2.008,1.955,-1.647,-1.5,-1.669,-1.938,-1.859,-1.704,-0.263,1.8,0.117
'0:00.863',-1.379,1.266,2.646,0.057,-2.013,1.956,-1.65,-1.501,-1.667,-1.938,-1.859,-1.703,-0.263,1.799,0.115
'0:00.864',-1.382,1.264,2.647,0.059,-2.014,1.956,-1.651,-1.502,-1.669,-1.938,-1.857,-1.702,-0.264,1.796,0.115
'0:00.865',-1.381,1.266,2.647,0.058,-2.014,1.956,-1.654,-1.502,-1.67,-1.938,-1.857,-1.704,-0.266,1.8,0.113
'0:00.866',-1.374,1.274,2.649,0.05,-2.011,1.962,-1.659,-1.504,-1.671,-1.937,-1.857,-1.702,-0.26,1.806,0.112
'0:00.867',-1.378,1.268,2.647,0.055,-2.012,1.957,-1.657,-1.503,-1.671,-1.935,-1.858,-1.701,-0.258,1.8,0.115
'0:00.868',-1.385,1.262,2.648,0.061,-2.017,1.956,-1.655,-1.503,-1.667,-1.933,-1.857,-1.698,-0.257,1.8,0.115
'0:00.869',-1.383,1.269,2.651,0.057,-2.017,1.96,-1.655,-1.501,-1.665,-1.931,-1.853,-1.696,-0.253,1.809,0.113
'0:00.870',-1.385,1.26,2.646,0.062,-2.015,1.953,-1.66,-1.506,-1.671,-1.938,-1.859,-1.703,-0.254,1.804,0.116
'0:00.871',-1.381,1.262,2.642,0.059,-2.011,1.952,-1.656,-1.502,-1.67,-1.937,-1.855,-1.702,-0.255,1.804,0.113
'0:00.872',-1.376,1.262,2.638,0.058,-2.007,1.95,-1.653,-1.498,-1.667,-1.935,-1.851,-1.702,-0.258,1.804,0.113
'0:00.873',-1.379,1.256,2.635,0.061,-2.007,1.946,-1.655,-1.504,-1.671,-1.94,-1.856,-1.706,-0.258,1.802,0.117
'0:00.874',-1.384,1.257,2.641,0.064,-2.013,1.949,-1.655,-1.504,-1.671,-1.939,-1.86,-1.707,-0.262,1.806,0.114
'0:00.875',-1.379,1.254,2.634,0.062,-2.006,1.944,-1.659,-1.506,-1.676,-1.946,-1.867,-1.715,-0.268,1.798,0.116
'0:00.876',-1.379,1.254,2.633,0.062,-2.006,1.944,-1.661,-1.508,-1.677,-1.947,-1.865,-1.714,-0.266,1.796,0.115
'0:00.877',-1.377,1.261,2.639,0.059,-2.009,1.95,-1.655,-1.501,-1.671,-1.939,-1.855,-1.704,-0.258,1.802,0.112
'0:00.878',-1.373,1.265,2.638,0.054,-2.006,1.952,-1.653,-1.498,-1.667,-1.936,-1.853,-1.704,-0.259,1.804,0.111
'0:00.879',-1.379,1.262,2.642,0.059,-2.01,1.952,-1.651,-1.498,-1.663,-1.935,-1.855,-1.704,-0.263,1.804,0.111
'0:00.880',-1.375,1.265,2.641,0.056,-2.008,1.953,-1.651,-1.498,-1.665,-1.937,-1.853,-1.702,-0.257,1.797,0.113
'0:00.881',-1.379,1.262,2.642,0.059,-2.01,1.952,-1.655,-1.502,-1.669,-1.94,-1.857,-1.706,-0.262,1.794,0.111
'0:00.882',-1.383,1.259,2.642,0.062,-2.012,1.95,-1.655,-1.506,-1.673,-1.944,-1.861,-1.705,-0.267,1.795,0.107
'0:00.883',-1.371,1.258,2.63,0.056,-2.001,1.944,-1.657,-1.508,-1.675,-1.946,-1.861,-1.709,-0.265,1.792,0.108
'0:00.884',-1.364,1.268,2.632,0.048,-1.998,1.95,-1.645,-1.501,-1.667,-1.939,-1.857,-1.706,-0.268,1.794,0.103
'0:00.885',-1.367,1.27,2.637,0.049,-2.002,1.954,-1.643,-1.496,-1.663,-1.933,-1.851,-1.699,-0.263,1.795,0.107
'0:00.886',-1.371,1.263,2.634,0.054,-2.002,1.948,-1.651,-1.5,-1.669,-1.938,-1.857,-1.703,-0.261,1.794,0.114
'0:00.887',-1.375,1.268,2.643,0.053,-2.009,1.956,-1.646,-1.5,-1.667,-1.938,-1.855,-1.702,-0.262,1.798,0.107
'0:00.888',-1.377,1.268,2.646,0.055,-2.012,1.957,-1.65,-1.498,-1.665,-1.935,-1.849,-1.697,-0.258,1.8,0.106
'0:00.889',-1.381,1.264,2.645,0.059,-2.013,1.954,-1.653,-1.499,-1.664,-1.935,-1.851,-1.696,-0.258,1.798,0.103
'0:00.890',-1.379,1.261,2.64,0.059,-2.01,1.951,-1.652,-1.5,-1.665,-1.935,-1.852,-1.698,-0.26,1.794,0.106
'0:00.891',-1.373,1.266,2.639,0.053,-2.006,1.952,-1.649,-1.498,-1.664,-1.933,-1.851,-1.696,-0.258,1.796,0.11
'0:00.892',-1.375,1.266,2.64,0.054,-2.007,1.953,-1.652,-1.498,-1.663,-1.931,-1.851,-1.697,-0.258,1.802,0.11
'0:00.893',-1.379,1.263,2.642,0.058,-2.01,1.952,-1.653,-1.498,-1.663,-1.929,-1.847,-1.693,-0.256,1.802,0.111
'0:00.894',-1.381,1.266,2.648,0.058,-2.014,1.957,-1.649,-1.494,-1.657,-1.923,-1.845,-1.688,-0.251,1.802,0.108
'0:00.895',-1.375,1.265,2.641,0.056,-2.009,1.953,-1.654,-1.5,-1.665,-1.933,-1.853,-1.702,-0.26,1.8,0.112
'0:00.896',-1.375,1.26,2.635,0.058,-2.006,1.948,-1.655,-1.502,-1.668,-1.937,-1.855,-1.706,-0.259,1.798,0.114
'0:00.897',-1.386,1.256,2.642,0.066,-2.014,1.948,-1.653,-1.496,-1.661,-1.927,-1.847,-1.696,-0.254,1.799,0.114
'0:00.898',-1.39,1.257,2.647,0.067,-2.019,1.952,-1.653,-1.494,-1.66,-1.927,-1.848,-1.696,-0.258,1.801,0.112
'0:00.899',-1.383,1.26,2.644,0.061,-2.014,1.952,-1.657,-1.498,-1.663,-1.931,-1.851,-1.698,-0.261,1.8,0.11
'0:00.900',-1.379,1.264,2.643,0.058,-2.011,1.953,-1.655,-1.498,-1.663,-1.931,-1.853,-1.702,-0.265,1.806,0.111
'0:00.901',-1.383,1.263,2.647,0.06,-2.015,1.955,-1.651,-1.494,-1.658,-1.929,-1.855,-1.701,-0.26,1.812,0.116
'0:00.902',-1.382,1.263,2.646,0.059,-2.014,1.954,-1.654,-1.492,-1.655,-1.926,-1.849,-1.694,-0.253,1.811,0.115
'0:00.903',-1.385,1.261,2.646,0.062,-2.015,1.954,-1.657,-1.496,-1.659,-1.928,-1.851,-1.696,-0.254,1.808,0.112
'0:00.904',-1.379,1.256,2.635,0.061,-2.006,1.945,-1.659,-1.498,-1.661,-1.933,-1.857,-1.7,-0.256,1.8,0.116
'0:00.905',-1.375,1.258,2.635,0.059,-2.005,1.946,-1.653,-1.492,-1.655,-1.925,-1.848,-1.691,-0.25,1.806,0.116
'0:00.906',-1.383,1.26,2.643,0.061,-2.013,1.952,-1.653,-1.49,-1.651,-1.918,-1.845,-1.685,-0.245,1.813,0.113
'0:00.907',-1.381,1.262,2.643,0.06,-2.013,1.952,-1.653,-1.488,-1.649,-1.919,-1.848,-1.689,-0.248,1.808,0.11
'0:00.908',-1.384,1.258,2.643,0.063,-2.013,1.95,-1.651,-1.49,-1.651,-1.924,-1.849,-1.692,-0.255,1.804,0.106
'0:00.909',-1.385,1.25,2.636,0.068,-2.011,1.944,-1.659,-1.499,-1.661,-1.933,-1.855,-1.699,-0.259,1.798,0.104
'0:00.910',-1.379,1.259,2.639,0.06,-2.009,1.949,-1.657,-1.5,-1.659,-1.932,-1.855,-1.699,-0.258,1.8,0.102
'0:00.911',-1.383,1.258,2.64,0.062,-2.011,1.949,-1.659,-1.5,-1.661,-1.935,-1.857,-1.702,-0.257,1.799,0.102
'0:00.912',-1.391,1.24,2.632,0.075,-2.012,1.937,-1.663,-1.504,-1.667,-1.94,-1.86,-1.707,-0.26,1.791,0.109
'0:00.913',-1.381,1.25,2.631,0.066,-2.006,1.94,-1.659,-1.498,-1.661,-1.931,-1.854,-1.7,-0.261,1.793,0.11
'0:00.914',-1.376,1.257,2.633,0.059,-2.005,1.945,-1.658,-1.498,-1.659,-1.93,-1.854,-1.698,-0.26,1.794,0.107
'0:00.915',-1.381,1.25,2.632,0.065,-2.006,1.942,-1.654,-1.498,-1.659,-1.928,-1.852,-1.696,-0.258,1.792,0.104
'0:00.916',-1.381,1.248,2.63,0.067,-2.006,1.939,-1.652,-1.493,-1.655,-1.923,-1.849,-1.692,-0.252,1.79,0.103
'0:00.917',-1.389,1.244,2.634,0.073,-2.011,1.938,-1.655,-1.496,-1.655,-1.923,-1.848,-1.69,-0.251,1.794,0.105
'0:00.918',-1.393,1.246,2.639,0.074,-2.016,1.942,-1.657,-1.496,-1.656,-1.925,-1.855,-1.694,-0.256,1.796,0.106
'0:00.919',-1.385,1.25,2.635,0.067,-2.01,1.942,-1.655,-1.495,-1.655,-1.927,-1.857,-1.698,-0.258,1.794,0.107
'0:00.920',-1.379,1.248,2.627,0.067,-2.003,1.938,-1.657,-1.494,-1.653,-1.925,-1.85,-1.695,-0.252,1.792,0.112
'0:00.921',-1.385,1.242,2.628,0.072,-2.007,1.935,-1.659,-1.496,-1.653,-1.925,-1.853,-1.697,-0.25,1.792,0.114
'0:00.922',-1.388,1.243,2.632,0.072,-2.01,1.938,-1.656,-1.494,-1.651,-1.927,-1.855,-1.698,-0.255,1.793,0.11
'0:00.923',-1.385,1.246,2.631,0.07,-2.008,1.938,-1.658,-1.494,-1.652,-1.928,-1.853,-1.698,-0.258,1.793,0.108
'0:00.924',-1.387,1.242,2.63,0.072,-2.009,1.936,-1.66,-1.497,-1.655,-1.93,-1.855,-1.701,-0.255,1.794,0.112
'0:00.925',-1.391,1.236,2.628,0.077,-2.01,1.933,-1.663,-1.498,-1.657,-1.931,-1.857,-1.702,-0.251,1.787,0.115
'0:00.926',-1.391,1.24,2.631,0.075,-2.011,1.936,-1.664,-1.497,-1.655,-1.931,-1.854,-1.7,-0.25,1.79,0.117
'0:00.927',-1.387,1.246,2.634,0.07,-2.01,1.94,-1.659,-1.494,-1.651,-1.927,-1.847,-1.693,-0.249,1.798,0.114
'0:00.928',-1.386,1.242,2.627,0.072,-2.007,1.935,-1.663,-1.498,-1.657,-1.933,-1.853,-1.7,-0.255,1.794,0.115
'0:00.929',-1.385,1.242,2.627,0.072,-2.006,1.934,-1.661,-1.498,-1.66,-1.933,-1.857,-1.701,-0.255,1.794,0.114
'0:00.930',-1.385,1.242,2.627,0.071,-2.006,1.935,-1.658,-1.498,-1.659,-1.931,-1.857,-1.698,-0.254,1.793,0.111
'0:00.931',-1.385,1.242,2.627,0.071,-2.006,1.934,-1.657,-1.497,-1.659,-1.93,-1.853,-1.698,-0.254,1.794,0.11
'0:00.932',-1.395,1.238,2.634,0.079,-2.014,1.935,-1.656,-1.496,-1.657,-1.924,-1.851,-1.696,-0.254,1.797,0.11
'0:00.933',-1.403,1.232,2.635,0.085,-2.019,1.933,-1.659,-1.498,-1.659,-1.926,-1.855,-1.7,-0.26,1.793,0.109
'0:00.934',-1.399,1.238,2.638,0.08,-2.018,1.938,-1.653,-1.492,-1.651,-1.918,-1.847,-1.691,-0.256,1.8,0.103
'0:00.935',-1.391,1.238,2.63,0.076,-2.01,1.933,-1.653,-1.492,-1.655,-1.923,-1.851,-1.698,-0.259,1.794,0.106
'0:00.936',-1.381,1.238,2.62,0.071,-2.001,1.929,-1.655,-1.496,-1.664,-1.935,-1.861,-1.71,-0.261,1.788,0.113
'0:00.937',-1.387,1.235,2.622,0.076,-2.004,1.929,-1.655,-1.496,-1.665,-1.936,-1.859,-1.708,-0.26,1.786,0.113
'0:00.938',-1.388,1.234,2.623,0.076,-2.006,1.929,-1.659,-1.499,-1.667,-1.935,-1.859,-1.706,-0.258,1.782,0.113
'0:00.939',-1.39,1.24,2.63,0.075,-2.01,1.935,-1.655,-1.494,-1.659,-1.927,-1.853,-1.696,-0.251,1.789,0.112
'0:00.940',-1.391,1.231,2.623,0.08,-2.007,1.927,-1.655,-1.495,-1.661,-1.931,-1.853,-1.697,-0.251,1.786,0.112
'0:00.941',-1.388,1.23,2.619,0.079,-2.003,1.925,-1.661,-1.496,-1.663,-1.933,-1.856,-1.7,-0.257,1.783,0.11
'0:00.942',-1.384,1.238,2.622,0.073,-2.003,1.93,-1.66,-1.497,-1.663,-1.933,-1.855,-1.7,-0.257,1.786,0.112
'0:00.943',-1.378,1.243,2.621,0.068,-2,1.932,-1.656,-1.494,-1.659,-1.929,-1.849,-1.694,-0.256,1.79,0.113
'0:00.944',-1.383,1.244,2.627,0.07,-2.005,1.935,-1.653,-1.493,-1.656,-1.927,-1.848,-1.694,-0.257,1.79,0.11
'0:00.945',-1.393,1.236,2.63,0.079,-2.011,1.933,-1.657,-1.496,-1.659,-1.929,-1.849,-1.696,-0.254,1.786,0.112
'0:00.946',-1.397,1.234,2.631,0.082,-2.014,1.933,-1.652,-1.492,-1.655,-1.925,-1.849,-1.692,-0.26,1.788,0.11
'0:00.947',-1.395,1.24,2.635,0.077,-2.015,1.938,-1.649,-1.492,-1.657,-1.927,-1.853,-1.694,-0.267,1.79,0.107
'0:00.948',-1.397,1.238,2.635,0.079,-2.016,1.937,-1.651,-1.493,-1.658,-1.928,-1.848,-1.696,-0.257,1.792,0.112
'0:00.949',-1.399,1.234,2.632,0.082,-2.015,1.933,-1.649,-1.494,-1.658,-1.93,-1.849,-1.7,-0.258,1.786,0.112
'0:00.950',-1.396,1.232,2.628,0.083,-2.012,1.93,-1.653,-1.496,-1.663,-1.938,-1.854,-1.705,-0.261,1.783,0.113
'0:00.951',-1.395,1.231,2.627,0.083,-2.011,1.929,-1.655,-1.498,-1.663,-1.94,-1.855,-1.706,-0.263,1.788,0.114
'0:00.952',-1.396,1.236,2.632,0.08,-2.014,1.933,-1.653,-1.498,-1.663,-1.94,-1.853,-1.704,-0.265,1.792,0.114
'0:00.953',-1.397,1.232,2.628,0.083,-2.013,1.929,-1.656,-1.499,-1.665,-1.942,-1.853,-1.708,-0.265,1.788,0.116
'0:00.954',-1.399,1.228,2.627,0.086,-2.013,1.927,-1.657,-1.498,-1.664,-1.94,-1.853,-1.706,-0.263,1.786,0.115
'0:00.955',-1.399,1.228,2.627,0.086,-2.013,1.927,-1.655,-1.496,-1.661,-1.935,-1.852,-1.698,-0.259,1.786,0.115
'0:00.956',-1.396,1.221,2.618,0.087,-2.006,1.919,-1.654,-1.496,-1.661,-1.935,-1.855,-1.7,-0.262,1.776,0.113
'0:00.957',-1.401,1.222,2.624,0.089,-2.013,1.923,-1.653,-1.494,-1.661,-1.938,-1.853,-1.702,-0.261,1.779,0.111
'0:00.958',-1.405,1.224,2.63,0.091,-2.018,1.927,-1.651,-1.493,-1.659,-1.935,-1.849,-1.698,-0.258,1.786,0.109
'0:00.959',-1.401,1.224,2.625,0.088,-2.013,1.925,-1.649,-1.49,-1.657,-1.933,-1.852,-1.696,-0.259,1.778,0.11
'0:00.960',-1.4,1.23,2.63,0.085,-2.015,1.93,-1.645,-1.49,-1.655,-1.928,-1.847,-1.692,-0.258,1.782,0.108
'0:00.961',-1.397,1.232,2.63,0.083,-2.014,1.931,-1.645,-1.49,-1.653,-1.927,-1.843,-1.689,-0.257,1.782,0.107
'0:00.962',-1.394,1.236,2.631,0.079,-2.012,1.933,-1.643,-1.488,-1.653,-1.929,-1.849,-1.695,-0.261,1.784,0.108
'0:00.963',-1.399,1.232,2.631,0.083,-2.015,1.931,-1.642,-1.488,-1.655,-1.931,-1.85,-1.696,-0.266,1.786,0.108
'0:00.964',-1.398,1.222,2.62,0.088,-2.01,1.921,-1.644,-1.492,-1.659,-1.937,-1.853,-1.7,-0.267,1.778,0.114
'0:00.965',-1.401,1.217,2.618,0.092,-2.01,1.917,-1.647,-1.496,-1.662,-1.938,-1.855,-1.7,-0.265,1.776,0.117
'0:00.966',-1.399,1.219,2.619,0.09,-2.01,1.919,-1.648,-1.496,-1.661,-1.935,-1.851,-1.696,-0.26,1.779,0.117
'0:00.967',-1.402,1.218,2.621,0.092,-2.011,1.919,-1.646,-1.494,-1.659,-1.937,-1.857,-1.7,-0.263,1.779,0.116
'0:00.968',-1.409,1.211,2.622,0.1,-2.015,1.916,-1.653,-1.498,-1.663,-1.94,-1.855,-1.702,-0.265,1.776,0.119
'0:00.969',-1.413,1.212,2.625,0.1,-2.019,1.919,-1.656,-1.498,-1.663,-1.938,-1.851,-1.7,-0.265,1.78,0.118
'0:00.970',-1.417,1.208,2.625,0.104,-2.021,1.917,-1.655,-1.5,-1.663,-1.939,-1.853,-1.703,-0.267,1.778,0.117
'0:00.971',-1.409,1.209,2.618,0.1,-2.013,1.913,-1.655,-1.5,-1.665,-1.941,-1.855,-1.704,-0.262,1.772,0.119
'0:00.972',-1.411,1.211,2.622,0.1,-2.017,1.917,-1.65,-1.496,-1.661,-1.935,-1.852,-1.696,-0.258,1.774,0.117
'0:00.973',-1.415,1.208,2.624,0.103,-2.02,1.917,-1.646,-1.496,-1.659,-1.933,-1.849,-1.695,-0.262,1.78,0.118
'0:00.974',-1.409,1.21,2.619,0.1,-2.014,1.915,-1.651,-1.498,-1.663,-1.935,-1.85,-1.697,-0.26,1.774,0.119
'0:00.975',-1.405,1.211,2.616,0.097,-2.01,1.913,-1.655,-1.498,-1.663,-1.93,-1.848,-1.692,-0.256,1.768,0.12
'0:00.976',-1.401,1.214,2.615,0.094,-2.009,1.915,-1.653,-1.499,-1.663,-1.931,-1.849,-1.695,-0.262,1.776,0.119
'0:00.977',-1.403,1.212,2.616,0.096,-2.01,1.915,-1.655,-1.5,-1.663,-1.933,-1.851,-1.696,-0.262,1.777,0.117
'0:00.978',-1.407,1.218,2.626,0.095,-2.017,1.922,-1.651,-1.495,-1.659,-1.929,-1.843,-1.69,-0.261,1.78,0.114
'0:00.979',-1.416,1.209,2.625,0.103,-2.021,1.917,-1.646,-1.497,-1.662,-1.933,-1.843,-1.692,-0.266,1.774,0.113
'0:00.980',-1.411,1.207,2.619,0.102,-2.015,1.913,-1.645,-1.497,-1.663,-1.934,-1.849,-1.694,-0.263,1.764,0.115
'0:00.981',-1.407,1.214,2.62,0.097,-2.014,1.917,-1.646,-1.498,-1.665,-1.937,-1.851,-1.698,-0.263,1.769,0.115
'0:00.982',-1.411,1.209,2.622,0.102,-2.017,1.915,-1.65,-1.502,-1.671,-1.942,-1.855,-1.703,-0.264,1.775,0.118
'0:00.983',-1.41,1.211,2.622,0.1,-2.016,1.917,-1.651,-1.503,-1.669,-1.942,-1.853,-1.702,-0.267,1.78,0.118
'0:00.984',-1.407,1.216,2.624,0.096,-2.016,1.921,-1.649,-1.501,-1.667,-1.94,-1.849,-1.699,-0.266,1.777,0.117
'0:00.985',-1.404,1.22,2.624,0.092,-2.014,1.922,-1.649,-1.499,-1.667,-1.939,-1.847,-1.698,-0.266,1.776,0.115
'0:00.986',-1.416,1.216,2.632,0.1,-2.024,1.924,-1.649,-1.496,-1.659,-1.929,-1.84,-1.685,-0.26,1.779,0.114
'0:00.987',-1.413,1.214,2.627,0.099,-2.02,1.921,-1.649,-1.495,-1.659,-1.929,-1.843,-1.688,-0.259,1.772,0.117
'0:00.988',-1.401,1.212,2.614,0.094,-2.007,1.913,-1.651,-1.503,-1.672,-1.95,-1.857,-1.712,-0.275,1.768,0.118
'0:00.989',-1.402,1.218,2.62,0.092,-2.011,1.919,-1.651,-1.502,-1.671,-1.948,-1.851,-1.706,-0.27,1.772,0.118
'0:00.990',-1.404,1.224,2.627,0.09,-2.016,1.925,-1.649,-1.499,-1.665,-1.94,-1.845,-1.694,-0.267,1.776,0.118
'0:00.991',-1.4,1.222,2.623,0.089,-2.011,1.923,-1.647,-1.498,-1.667,-1.944,-1.851,-1.702,-0.274,1.774,0.121
'0:00.992',-1.394,1.222,2.616,0.086,-2.005,1.919,-1.646,-1.498,-1.667,-1.946,-1.855,-1.703,-0.271,1.772,0.125
'0:00.993',-1.393,1.228,2.622,0.082,-2.007,1.925,-1.643,-1.494,-1.661,-1.938,-1.845,-1.693,-0.265,1.774,0.121
'0:00.994',-1.391,1.232,2.623,0.08,-2.006,1.927,-1.643,-1.492,-1.659,-1.937,-1.842,-1.691,-0.264,1.772,0.122
'0:00.995',-1.397,1.219,2.615,0.089,-2.006,1.917,-1.648,-1.498,-1.667,-1.944,-1.852,-1.702,-0.271,1.77,0.126
'0:00.996',-1.397,1.216,2.615,0.09,-2.006,1.915,-1.649,-1.498,-1.667,-1.944,-1.854,-1.706,-0.274,1.766,0.125
'0:00.997',-1.395,1.222,2.619,0.086,-2.007,1.92,-1.645,-1.492,-1.663,-1.939,-1.848,-1.698,-0.27,1.768,0.123
'0:00.998',-1.397,1.222,2.619,0.087,-2.008,1.921,-1.647,-1.493,-1.662,-1.937,-1.845,-1.694,-0.269,1.769,0.122
'0:00.999',-1.391,1.222,2.614,0.084,-2.002,1.918,-1.651,-1.497,-1.665,-1.942,-1.851,-1.701,-0.271,1.768,0.124
'0:01.000',-1.387,1.223,2.61,0.082,-1.998,1.917,-1.648,-1.494,-1.663,-1.94,-1.851,-1.701,-0.268,1.764,0.127
'0:01.001',-1.395,1.223,2.619,0.086,-2.007,1.921,-1.645,-1.492,-1.659,-1.935,-1.845,-1.696,-0.265,1.768,0.123
'0:01.002',-1.397,1.226,2.623,0.086,-2.01,1.925,-1.644,-1.49,-1.657,-1.933,-1.845,-1.692,-0.265,1.77,0.119
'0:01.003',-1.401,1.226,2.627,0.087,-2.014,1.927,-1.641,-1.488,-1.656,-1.933,-1.841,-1.694,-0.267,1.77,0.118
'0:01.004',-1.405,1.226,2.631,0.089,-2.018,1.928,-1.643,-1.489,-1.656,-1.932,-1.839,-1.69,-0.268,1.776,0.116
'0:01.005',-1.399,1.224,2.623,0.087,-2.011,1.923,-1.637,-1.485,-1.653,-1.931,-1.841,-1.69,-0.267,1.767,0.114
'0:01.006',-1.398,1.232,2.63,0.083,-2.014,1.931,-1.633,-1.484,-1.653,-1.932,-1.843,-1.694,-0.267,1.768,0.113
'0:01.007',-1.399,1.238,2.639,0.081,-2.019,1.938,-1.637,-1.485,-1.655,-1.935,-1.844,-1.694,-0.27,1.775,0.109
'0:01.008',-1.399,1.236,2.635,0.082,-2.018,1.935,-1.636,-1.48,-1.651,-1.932,-1.841,-1.694,-0.271,1.78,0.108
'0:01.009',-1.399,1.233,2.633,0.083,-2.016,1.933,-1.636,-1.484,-1.653,-1.933,-1.839,-1.694,-0.27,1.778,0.106
'0:01.010',-1.399,1.232,2.631,0.084,-2.015,1.931,-1.635,-1.483,-1.653,-1.937,-1.84,-1.694,-0.271,1.771,0.108
'0:01.011',-1.395,1.238,2.635,0.079,-2.015,1.937,-1.634,-1.48,-1.651,-1.933,-1.837,-1.692,-0.272,1.777,0.109
'0:01.012',-1.393,1.238,2.631,0.077,-2.011,1.935,-1.639,-1.487,-1.658,-1.94,-1.841,-1.695,-0.271,1.78,0.11
'0:01.013',-1.392,1.238,2.63,0.077,-2.011,1.933,-1.637,-1.486,-1.657,-1.938,-1.837,-1.692,-0.263,1.78,0.112
'0:01.014',-1.393,1.24,2.634,0.077,-2.014,1.937,-1.639,-1.484,-1.655,-1.936,-1.833,-1.69,-0.264,1.782,0.109
'0:01.015',-1.388,1.248,2.636,0.07,-2.013,1.942,-1.637,-1.484,-1.653,-1.937,-1.835,-1.692,-0.269,1.784,0.11
'0:01.016',-1.385,1.252,2.636,0.067,-2.01,1.944,-1.633,-1.482,-1.65,-1.935,-1.835,-1.69,-0.267,1.782,0.116
'0:01.017',-1.383,1.252,2.636,0.066,-2.01,1.944,-1.633,-1.483,-1.65,-1.933,-1.831,-1.687,-0.265,1.786,0.117
'0:01.018',-1.381,1.26,2.641,0.06,-2.011,1.95,-1.624,-1.476,-1.644,-1.926,-1.827,-1.683,-0.265,1.792,0.111
'0:01.019',-1.375,1.262,2.638,0.057,-2.006,1.95,-1.623,-1.476,-1.647,-1.931,-1.834,-1.688,-0.268,1.792,0.116
'0:01.020',-1.365,1.274,2.64,0.045,-2.002,1.957,-1.625,-1.476,-1.647,-1.929,-1.831,-1.685,-0.267,1.804,0.116
'0:01.021',-1.372,1.28,2.652,0.046,-2.013,1.966,-1.614,-1.472,-1.641,-1.921,-1.823,-1.676,-0.267,1.812,0.111
'0:01.022',-1.377,1.278,2.655,0.05,-2.015,1.966,-1.613,-1.472,-1.642,-1.923,-1.829,-1.681,-0.269,1.802,0.115
'0:01.023',-1.377,1.276,2.654,0.051,-2.015,1.964,-1.619,-1.475,-1.643,-1.927,-1.835,-1.685,-0.269,1.8,0.114
'0:01.024',-1.386,1.272,2.659,0.057,-2.022,1.966,-1.615,-1.472,-1.639,-1.925,-1.831,-1.682,-0.27,1.808,0.113
'0:01.025',-1.38,1.278,2.658,0.051,-2.019,1.968,-1.614,-1.472,-1.637,-1.923,-1.834,-1.684,-0.27,1.808,0.114
'0:01.026',-1.373,1.28,2.654,0.047,-2.014,1.967,-1.614,-1.472,-1.636,-1.923,-1.831,-1.682,-0.268,1.81,0.111
'0:01.027',-1.372,1.279,2.651,0.047,-2.011,1.965,-1.612,-1.47,-1.637,-1.925,-1.831,-1.681,-0.269,1.812,0.11
'0:01.028',-1.37,1.284,2.655,0.043,-2.012,1.97,-1.611,-1.47,-1.637,-1.926,-1.833,-1.679,-0.269,1.815,0.109
'0:01.029',-1.366,1.286,2.652,0.04,-2.01,1.969,-1.61,-1.468,-1.635,-1.925,-1.829,-1.679,-0.269,1.81,0.105
'0:01.030',-1.375,1.276,2.651,0.05,-2.013,1.963,-1.615,-1.472,-1.639,-1.929,-1.834,-1.683,-0.27,1.806,0.102
'0:01.031',-1.385,1.266,2.652,0.059,-2.018,1.96,-1.615,-1.474,-1.641,-1.932,-1.835,-1.685,-0.273,1.808,0.101
'0:01.032',-1.372,1.269,2.642,0.051,-2.007,1.955,-1.613,-1.472,-1.64,-1.931,-1.833,-1.683,-0.271,1.804,0.107
'0:01.033',-1.371,1.276,2.647,0.048,-2.009,1.961,-1.611,-1.469,-1.634,-1.925,-1.83,-1.677,-0.27,1.806,0.106
'0:01.034',-1.365,1.279,2.645,0.043,-2.005,1.962,-1.609,-1.467,-1.631,-1.923,-1.828,-1.675,-0.265,1.804,0.109
'0:01.035',-1.357,1.286,2.643,0.035,-2,1.964,-1.606,-1.462,-1.627,-1.919,-1.825,-1.671,-0.256,1.805,0.111
'0:01.036',-1.355,1.29,2.646,0.033,-2.001,1.968,-1.601,-1.458,-1.624,-1.915,-1.824,-1.669,-0.26,1.811,0.1
'0:01.037',-1.352,1.292,2.645,0.03,-1.998,1.969,-1.6,-1.456,-1.623,-1.915,-1.825,-1.67,-0.259,1.81,0.095
'0:01.038',-1.359,1.294,2.654,0.032,-2.006,1.974,-1.593,-1.448,-1.613,-1.907,-1.817,-1.661,-0.252,1.817,0.091
'0:01.039',-1.357,1.301,2.659,0.028,-2.008,1.98,-1.589,-1.445,-1.609,-1.901,-1.81,-1.655,-0.247,1.826,0.088
'0:01.040',-1.351,1.31,2.662,0.021,-2.007,1.986,-1.589,-1.447,-1.609,-1.905,-1.815,-1.657,-0.246,1.827,0.089
'0:01.041',-1.355,1.311,2.667,0.022,-2.01,1.989,-1.587,-1.449,-1.611,-1.907,-1.822,-1.662,-0.252,1.828,0.088
'0:01.042',-1.363,1.313,2.677,0.025,-2.02,1.995,-1.585,-1.446,-1.606,-1.897,-1.815,-1.653,-0.252,1.834,0.085
'0:01.043',-1.35,1.323,2.672,0.013,-2.011,1.998,-1.585,-1.444,-1.603,-1.896,-1.81,-1.65,-0.248,1.837,0.084
'0:01.044',-1.344,1.323,2.667,0.011,-2.006,1.996,-1.588,-1.452,-1.611,-1.907,-1.812,-1.659,-0.255,1.833,0.082
'0:01.045',-1.357,1.319,2.676,0.018,-2.017,1.998,-1.589,-1.454,-1.613,-1.907,-1.815,-1.659,-0.259,1.833,0.08
'0:01.046',-1.353,1.322,2.675,0.015,-2.014,1.998,-1.593,-1.458,-1.614,-1.907,-1.816,-1.659,-0.259,1.837,0.085
'0:01.047',-1.349,1.323,2.674,0.013,-2.011,1.998,-1.601,-1.47,-1.623,-1.914,-1.817,-1.663,-0.26,1.836,0.089
'0:01.048',-1.351,1.328,2.679,0.011,-2.014,2.003,-1.603,-1.472,-1.626,-1.915,-1.823,-1.667,-0.265,1.838,0.09
'0:01.049',-1.353,1.331,2.684,0.011,-2.018,2.007,-1.607,-1.472,-1.623,-1.909,-1.815,-1.661,-0.263,1.847,0.087
'0:01.050',-1.359,1.328,2.688,0.015,-2.023,2.007,-1.613,-1.475,-1.623,-1.908,-1.811,-1.659,-0.259,1.855,0.09
'0:01.051',-1.359,1.327,2.687,0.016,-2.022,2.006,-1.625,-1.482,-1.629,-1.914,-1.815,-1.665,-0.261,1.859,0.097
'0:01.052',-1.361,1.331,2.692,0.015,-2.026,2.011,-1.627,-1.483,-1.624,-1.907,-1.812,-1.658,-0.259,1.867,0.099
'0:01.053',-1.36,1.332,2.693,0.014,-2.026,2.013,-1.638,-1.488,-1.625,-1.907,-1.81,-1.655,-0.253,1.865,0.102
'0:01.054',-1.359,1.331,2.691,0.014,-2.025,2.011,-1.653,-1.498,-1.631,-1.91,-1.809,-1.658,-0.249,1.863,0.107
'0:01.055',-1.359,1.337,2.697,0.011,-2.029,2.018,-1.653,-1.501,-1.631,-1.91,-1.81,-1.659,-0.259,1.875,0.11
'0:01.056',-1.34,1.357,2.697,-0.009,-2.019,2.027,-1.655,-1.502,-1.631,-1.911,-1.81,-1.663,-0.267,1.883,0.107
'0:01.057',-1.333,1.367,2.7,-0.017,-2.017,2.033,-1.661,-1.502,-1.627,-1.904,-1.804,-1.656,-0.258,1.884,0.11
'0:01.058',-1.336,1.361,2.697,-0.013,-2.017,2.03,-1.667,-1.51,-1.636,-1.908,-1.806,-1.661,-0.256,1.877,0.116
'0:01.059',-1.335,1.365,2.7,-0.015,-2.018,2.033,-1.669,-1.512,-1.639,-1.911,-1.81,-1.665,-0.256,1.879,0.118
'0:01.060',-1.342,1.371,2.713,-0.015,-2.027,2.042,-1.665,-1.506,-1.63,-1.904,-1.802,-1.656,-0.254,1.889,0.113
'0:01.061',-1.341,1.371,2.712,-0.015,-2.026,2.041,-1.666,-1.506,-1.631,-1.903,-1.803,-1.657,-0.257,1.887,0.108
'0:01.062',-1.337,1.371,2.708,-0.017,-2.023,2.039,-1.669,-1.505,-1.632,-1.905,-1.805,-1.659,-0.255,1.886,0.11
'0:01.063',-1.331,1.372,2.704,-0.02,-2.018,2.038,-1.672,-1.508,-1.632,-1.906,-1.804,-1.659,-0.252,1.877,0.109
'0:01.064',-1.335,1.368,2.704,-0.017,-2.019,2.036,-1.668,-1.505,-1.629,-1.901,-1.8,-1.655,-0.248,1.878,0.108
'0:01.065',-1.337,1.374,2.712,-0.018,-2.024,2.042,-1.666,-1.5,-1.625,-1.895,-1.796,-1.648,-0.244,1.892,0.106
'0:01.066',-1.333,1.38,2.714,-0.023,-2.024,2.047,-1.67,-1.504,-1.629,-1.898,-1.796,-1.646,-0.244,1.893,0.106
'0:01.067',-1.333,1.385,2.72,-0.026,-2.026,2.053,-1.671,-1.506,-1.627,-1.896,-1.789,-1.644,-0.243,1.894,0.104
'0:01.068',-1.329,1.395,2.724,-0.033,-2.026,2.059,-1.672,-1.504,-1.624,-1.891,-1.784,-1.64,-0.241,1.901,0.103
'0:01.069',-1.321,1.401,2.722,-0.04,-2.022,2.061,-1.676,-1.505,-1.625,-1.89,-1.786,-1.64,-0.239,1.909,0.105
'0:01.070',-1.319,1.402,2.721,-0.042,-2.02,2.062,-1.684,-1.513,-1.634,-1.897,-1.792,-1.647,-0.243,1.913,0.104
'0:01.071',-1.325,1.403,2.728,-0.039,-2.027,2.066,-1.688,-1.52,-1.641,-1.905,-1.796,-1.653,-0.251,1.913,0.104
'0:01.072',-1.332,1.402,2.735,-0.035,-2.033,2.068,-1.692,-1.526,-1.647,-1.91,-1.796,-1.655,-0.247,1.914,0.111
'0:01.073',-1.341,1.391,2.732,-0.025,-2.036,2.062,-1.696,-1.532,-1.654,-1.918,-1.796,-1.656,-0.252,1.911,0.118
'0:01.074',-1.336,1.387,2.724,-0.025,-2.03,2.056,-1.694,-1.534,-1.659,-1.925,-1.801,-1.664,-0.263,1.905,0.122
'0:01.075',-1.337,1.391,2.728,-0.026,-2.033,2.059,-1.691,-1.534,-1.659,-1.923,-1.804,-1.666,-0.262,1.905,0.126
'0:01.076',-1.344,1.393,2.738,-0.025,-2.041,2.066,-1.688,-1.531,-1.653,-1.915,-1.795,-1.657,-0.259,1.908,0.12
'0:01.077',-1.339,1.389,2.728,-0.025,-2.034,2.059,-1.686,-1.532,-1.657,-1.919,-1.8,-1.661,-0.263,1.905,0.117
'0:01.078',-1.339,1.378,2.716,-0.019,-2.027,2.047,-1.688,-1.534,-1.663,-1.92,-1.807,-1.662,-0.26,1.901,0.117
'0:01.079',-1.339,1.375,2.715,-0.018,-2.027,2.046,-1.69,-1.532,-1.661,-1.916,-1.804,-1.659,-0.251,1.895,0.118
'0:01.080',-1.341,1.373,2.715,-0.017,-2.027,2.044,-1.687,-1.533,-1.664,-1.921,-1.81,-1.663,-0.255,1.882,0.121
'0:01.081',-1.345,1.365,2.71,-0.01,-2.027,2.038,-1.688,-1.534,-1.667,-1.925,-1.813,-1.667,-0.261,1.873,0.12
'0:01.082',-1.347,1.355,2.702,-0.004,-2.024,2.029,-1.688,-1.528,-1.663,-1.92,-1.812,-1.663,-0.258,1.868,0.118
'0:01.083',-1.345,1.347,2.692,-0.001,-2.018,2.019,-1.683,-1.524,-1.661,-1.917,-1.814,-1.661,-0.258,1.859,0.117
'0:01.084',-1.341,1.346,2.687,-0.003,-2.014,2.017,-1.681,-1.524,-1.66,-1.917,-1.813,-1.66,-0.255,1.853,0.116
'0:01.085',-1.337,1.345,2.684,-0.004,-2.011,2.015,-1.68,-1.52,-1.657,-1.914,-1.812,-1.659,-0.253,1.852,0.116
'0:01.086',-1.339,1.334,2.674,0.003,-2.006,2.004,-1.68,-1.52,-1.659,-1.917,-1.814,-1.663,-0.255,1.841,0.119
'0:01.087',-1.351,1.318,2.67,0.017,-2.01,1.994,-1.677,-1.52,-1.661,-1.919,-1.817,-1.665,-0.257,1.826,0.12
'0:01.088',-1.358,1.306,2.664,0.026,-2.011,1.985,-1.675,-1.524,-1.665,-1.923,-1.819,-1.67,-0.261,1.821,0.122
'0:01.089',-1.357,1.296,2.652,0.03,-2.005,1.974,-1.672,-1.525,-1.669,-1.928,-1.825,-1.677,-0.268,1.813,0.124
'0:01.090',-1.362,1.285,2.647,0.038,-2.005,1.966,-1.667,-1.52,-1.667,-1.929,-1.831,-1.681,-0.268,1.802,0.126
'0:01.091',-1.367,1.278,2.646,0.044,-2.006,1.962,-1.67,-1.522,-1.671,-1.933,-1.833,-1.683,-0.269,1.794,0.129
'0:01.092',-1.369,1.274,2.643,0.048,-2.006,1.958,-1.669,-1.522,-1.671,-1.935,-1.833,-1.683,-0.271,1.792,0.129
'0:01.093',-1.371,1.272,2.643,0.05,-2.007,1.957,-1.666,-1.518,-1.668,-1.933,-1.833,-1.682,-0.271,1.797,0.128
'0:01.094',-1.373,1.276,2.648,0.049,-2.01,1.962,-1.661,-1.51,-1.663,-1.928,-1.831,-1.679,-0.269,1.804,0.127
'0:01.095',-1.375,1.272,2.649,0.051,-2.012,1.96,-1.661,-1.51,-1.663,-1.929,-1.832,-1.681,-0.272,1.8,0.124
'0:01.096',-1.379,1.268,2.648,0.056,-2.014,1.958,-1.665,-1.512,-1.667,-1.931,-1.835,-1.683,-0.275,1.795,0.122
'0:01.097',-1.379,1.262,2.642,0.059,-2.01,1.952,-1.659,-1.508,-1.667,-1.929,-1.833,-1.681,-0.272,1.788,0.124
'0:01.098',-1.381,1.245,2.626,0.068,-2.003,1.935,-1.657,-1.509,-1.669,-1.933,-1.837,-1.685,-0.274,1.773,0.127
'0:01.099',-1.379,1.238,2.617,0.071,-1.998,1.927,-1.655,-1.508,-1.669,-1.936,-1.839,-1.69,-0.277,1.767,0.126
'0:01.100',-1.381,1.228,2.61,0.077,-1.996,1.919,-1.656,-1.51,-1.672,-1.94,-1.843,-1.694,-0.275,1.762,0.126
