'Elapsed time','i','ii','iii','avr','avl','avf','v1','v2','v3','v4','v5','v6','vx','vy','vz'
'hh:mm:ss.mmm','mV','mV','mV','mV','mV','mV','mV','mV','mV','mV','mV','mV','mV','mV','mV'
'0:00.000',-1.218,-6.116,-4.897,3.667,1.839,-5.506,2.82,2.573,2.682,2.251,2.213,2.062,0.254,-3.163,-0.213
'0:00.001',-1.216,-6.111,-4.894,3.663,1.839,-5.502,2.822,2.582,2.692,2.26,2.221,2.066,0.257,-3.159,-0.216
'0:00.002',-1.203,-6.101,-4.897,3.651,1.847,-5.498,2.821,2.587,2.701,2.269,2.229,2.07,0.263,-3.164,-0.219
'0:00.003',-1.208,-6.103,-4.894,3.655,1.843,-5.498,2.825,2.593,2.709,2.277,2.235,2.071,0.263,-3.163,-0.226
'0:00.004',-1.202,-6.101,-4.899,3.651,1.848,-5.5,2.826,2.598,2.716,2.284,2.239,2.075,0.267,-3.159,-0.224
'0:00.005',-1.196,-6.098,-4.901,3.647,1.852,-5.5,2.825,2.601,2.725,2.291,2.245,2.081,0.273,-3.159,-0.225
'0:00.006',-1.198,-6.096,-4.897,3.646,1.849,-5.497,2.825,2.606,2.732,2.297,2.25,2.082,0.275,-3.156,-0.231
'0:00.007',-1.194,-6.098,-4.903,3.645,1.855,-5.5,2.828,2.612,2.741,2.307,2.255,2.082,0.278,-3.16,-0.232
'0:00.008',-1.194,-6.098,-4.904,3.646,1.855,-5.501,2.829,2.619,2.751,2.314,2.26,2.087,0.281,-3.168,-0.237
'0:00.009',-1.19,-6.094,-4.904,3.642,1.857,-5.498,2.829,2.626,2.76,2.322,2.264,2.09,0.286,-3.163,-0.244
'0:00.010',-1.187,-6.09,-4.903,3.638,1.858,-5.496,2.831,2.631,2.768,2.33,2.27,2.092,0.289,-3.149,-0.247
'0:00.011',-1.183,-6.088,-4.904,3.635,1.861,-5.496,2.826,2.629,2.77,2.334,2.272,2.092,0.292,-3.148,-0.246
'0:00.012',-1.171,-6.083,-4.912,3.627,1.87,-5.497,2.819,2.624,2.771,2.336,2.273,2.092,0.297,-3.155,-0.246
'0:00.013',-1.163,-6.077,-4.914,3.62,1.875,-5.495,2.82,2.628,2.776,2.341,2.276,2.096,0.302,-3.154,-0.248
'0:00.014',-1.165,-6.078,-4.912,3.622,1.873,-5.495,2.823,2.631,2.781,2.348,2.28,2.099,0.303,-3.15,-0.252
'0:00.015',-1.167,-6.08,-4.912,3.624,1.872,-5.496,2.826,2.636,2.79,2.353,2.287,2.102,0.307,-3.153,-0.254
'0:00.016',-1.163,-6.072,-4.909,3.617,1.873,-5.49,2.829,2.649,2.801,2.367,2.297,2.11,0.314,-3.143,-0.253
'0:00.017',-1.16,-6.072,-4.912,3.616,1.875,-5.492,2.829,2.651,2.801,2.369,2.3,2.111,0.317,-3.14,-0.254
'0:00.018',-1.157,-6.069,-4.912,3.613,1.877,-5.49,2.829,2.655,2.804,2.37,2.3,2.112,0.321,-3.152,-0.265
'0:00.019',-1.144,-6.055,-4.91,3.599,1.883,-5.482,2.829,2.659,2.813,2.38,2.308,2.118,0.328,-3.146,-0.268
'0:00.020',-1.141,-6.058,-4.917,3.599,1.887,-5.487,2.833,2.664,2.818,2.388,2.314,2.123,0.333,-3.142,-0.264
'0:00.021',-1.143,-6.059,-4.915,3.601,1.885,-5.487,2.834,2.67,2.826,2.396,2.317,2.124,0.336,-3.146,-0.265
'0:00.022',-1.143,-6.056,-4.912,3.599,1.885,-5.484,2.834,2.668,2.833,2.399,2.32,2.124,0.336,-3.145,-0.265
'0:00.023',-1.145,-6.057,-4.912,3.6,1.883,-5.484,2.834,2.674,2.841,2.407,2.325,2.127,0.34,-3.142,-0.271
'0:00.024',-1.139,-6.058,-4.918,3.599,1.889,-5.487,2.834,2.679,2.849,2.416,2.332,2.13,0.347,-3.143,-0.276
'0:00.025',-1.139,-6.058,-4.918,3.599,1.889,-5.487,2.835,2.682,2.856,2.421,2.337,2.131,0.351,-3.138,-0.274
'0:00.026',-1.135,-6.053,-4.917,3.595,1.891,-5.484,2.832,2.685,2.862,2.427,2.342,2.134,0.355,-3.131,-0.278
'0:00.027',-1.127,-6.05,-4.923,3.588,1.897,-5.486,2.833,2.689,2.87,2.436,2.351,2.137,0.36,-3.131,-0.284
'0:00.028',-1.121,-6.046,-4.925,3.583,1.901,-5.485,2.83,2.692,2.876,2.442,2.355,2.14,0.367,-3.135,-0.286
'0:00.029',-1.113,-6.043,-4.93,3.578,1.909,-5.487,2.827,2.693,2.881,2.446,2.357,2.143,0.371,-3.139,-0.285
'0:00.030',-1.115,-6.043,-4.928,3.579,1.907,-5.486,2.83,2.702,2.89,2.455,2.365,2.147,0.373,-3.135,-0.287
'0:00.031',-1.113,-6.035,-4.921,3.574,1.904,-5.478,2.837,2.713,2.903,2.467,2.374,2.151,0.375,-3.127,-0.294
'0:00.032',-1.107,-6.029,-4.921,3.568,1.907,-5.475,2.84,2.721,2.914,2.477,2.381,2.155,0.377,-3.126,-0.301
'0:00.033',-1.109,-6.03,-4.922,3.57,1.907,-5.476,2.839,2.725,2.917,2.482,2.384,2.153,0.379,-3.123,-0.302
'0:00.034',-1.105,-6.027,-4.922,3.566,1.909,-5.474,2.834,2.727,2.917,2.483,2.382,2.152,0.381,-3.12,-0.303
'0:00.035',-1.103,-6.026,-4.922,3.565,1.909,-5.473,2.832,2.727,2.92,2.486,2.385,2.154,0.383,-3.119,-0.3
'0:00.036',-1.103,-6.026,-4.922,3.564,1.909,-5.473,2.833,2.731,2.925,2.49,2.388,2.155,0.386,-3.122,-0.304
'0:00.037',-1.109,-6.027,-4.918,3.567,1.904,-5.471,2.834,2.737,2.931,2.494,2.39,2.159,0.39,-3.131,-0.31
'0:00.038',-1.103,-6.012,-4.909,3.558,1.903,-5.46,2.834,2.74,2.936,2.501,2.398,2.164,0.395,-3.124,-0.308
'0:00.039',-1.087,-6.005,-4.917,3.546,1.914,-5.46,2.828,2.737,2.938,2.506,2.405,2.17,0.403,-3.112,-0.309
'0:00.040',-1.085,-6.011,-4.925,3.548,1.919,-5.468,2.825,2.737,2.938,2.507,2.406,2.171,0.408,-3.119,-0.314
'0:00.041',-1.078,-6.008,-4.93,3.543,1.926,-5.468,2.826,2.739,2.939,2.51,2.41,2.174,0.411,-3.116,-0.315
'0:00.042',-1.081,-6.013,-4.931,3.546,1.925,-5.471,2.828,2.74,2.942,2.515,2.414,2.177,0.413,-3.116,-0.317
'0:00.043',-1.093,-6.019,-4.926,3.555,1.917,-5.473,2.833,2.748,2.951,2.525,2.42,2.18,0.414,-3.128,-0.319
'0:00.044',-1.085,-6.013,-4.929,3.549,1.922,-5.471,2.837,2.756,2.959,2.535,2.429,2.187,0.422,-3.119,-0.319
'0:00.045',-1.075,-6.01,-4.934,3.542,1.929,-5.471,2.841,2.764,2.968,2.546,2.441,2.195,0.43,-3.112,-0.326
'0:00.046',-1.074,-6.013,-4.939,3.543,1.932,-5.476,2.839,2.766,2.973,2.55,2.445,2.193,0.431,-3.119,-0.328
'0:00.047',-1.065,-6.01,-4.944,3.537,1.94,-5.477,2.836,2.766,2.973,2.554,2.447,2.196,0.436,-3.122,-0.328
'0:00.048',-1.063,-6.002,-4.938,3.532,1.937,-5.47,2.837,2.771,2.979,2.559,2.454,2.202,0.442,-3.108,-0.324
'0:00.049',-1.065,-5.997,-4.931,3.531,1.933,-5.463,2.836,2.773,2.983,2.561,2.456,2.203,0.444,-3.1,-0.33
'0:00.050',-1.065,-5.997,-4.931,3.53,1.933,-5.464,2.837,2.775,2.985,2.563,2.458,2.204,0.448,-3.106,-0.336
'0:00.051',-1.065,-6,-4.934,3.532,1.935,-5.466,2.833,2.771,2.985,2.564,2.461,2.207,0.45,-3.104,-0.33
'0:00.052',-1.058,-6.002,-4.942,3.53,1.942,-5.472,2.829,2.768,2.984,2.567,2.464,2.212,0.456,-3.105,-0.324
'0:00.053',-1.056,-6,-4.943,3.528,1.943,-5.471,2.825,2.762,2.983,2.568,2.466,2.213,0.459,-3.107,-0.326
'0:00.054',-1.056,-6.002,-4.944,3.529,1.944,-5.473,2.823,2.761,2.982,2.568,2.467,2.214,0.459,-3.111,-0.338
'0:00.055',-1.053,-6.003,-4.949,3.528,1.948,-5.476,2.822,2.766,2.983,2.57,2.471,2.216,0.461,-3.111,-0.337
'0:00.056',-1.063,-5.994,-4.93,3.529,1.933,-5.462,2.824,2.772,2.989,2.576,2.474,2.22,0.46,-3.103,-0.335
'0:00.057',-1.063,-5.992,-4.928,3.527,1.932,-5.46,2.824,2.772,2.992,2.582,2.477,2.224,0.464,-3.1,-0.332
'0:00.058',-1.048,-5.997,-4.947,3.522,1.949,-5.471,2.817,2.765,2.986,2.576,2.476,2.227,0.469,-3.108,-0.331
'0:00.059',-1.048,-5.992,-4.943,3.521,1.947,-5.468,2.817,2.768,2.987,2.578,2.478,2.23,0.47,-3.102,-0.333
'0:00.060',-1.046,-5.988,-4.942,3.517,1.948,-5.465,2.814,2.767,2.989,2.58,2.481,2.231,0.473,-3.103,-0.332
'0:00.061',-1.044,-5.989,-4.944,3.517,1.95,-5.466,2.812,2.768,2.989,2.582,2.482,2.232,0.472,-3.107,-0.333
'0:00.062',-1.044,-5.987,-4.942,3.515,1.949,-5.465,2.815,2.77,2.991,2.584,2.486,2.234,0.473,-3.103,-0.332
'0:00.063',-1.039,-5.979,-4.94,3.509,1.95,-5.459,2.814,2.767,2.989,2.583,2.487,2.236,0.477,-3.097,-0.334
'0:00.064',-1.045,-5.979,-4.934,3.512,1.944,-5.457,2.816,2.766,2.987,2.581,2.485,2.233,0.473,-3.093,-0.333
'0:00.065',-1.045,-5.981,-4.936,3.514,1.946,-5.458,2.812,2.758,2.981,2.575,2.482,2.232,0.471,-3.088,-0.33
'0:00.066',-1.034,-5.974,-4.939,3.505,1.952,-5.457,2.806,2.749,2.971,2.569,2.478,2.231,0.474,-3.087,-0.327
'0:00.067',-1.032,-5.973,-4.941,3.502,1.954,-5.457,2.804,2.748,2.969,2.566,2.479,2.231,0.476,-3.093,-0.324
'0:00.068',-1.03,-5.971,-4.94,3.5,1.955,-5.455,2.803,2.748,2.969,2.568,2.484,2.236,0.477,-3.09,-0.326
'0:00.069',-1.03,-5.976,-4.944,3.503,1.956,-5.46,2.806,2.753,2.972,2.572,2.488,2.237,0.479,-3.098,-0.328
'0:00.070',-1.036,-5.981,-4.944,3.509,1.954,-5.462,2.808,2.756,2.974,2.575,2.491,2.237,0.478,-3.097,-0.329
'0:00.071',-1.039,-5.978,-4.939,3.509,1.95,-5.458,2.807,2.756,2.974,2.575,2.493,2.239,0.478,-3.087,-0.332
'0:00.072',-1.038,-5.982,-4.944,3.51,1.953,-5.463,2.801,2.749,2.967,2.57,2.49,2.239,0.478,-3.095,-0.33
'0:00.073',-1.038,-5.981,-4.944,3.51,1.953,-5.462,2.796,2.74,2.958,2.564,2.49,2.239,0.478,-3.098,-0.325
'0:00.074',-1.038,-5.976,-4.937,3.507,1.949,-5.456,2.796,2.736,2.954,2.561,2.492,2.241,0.478,-3.094,-0.324
'0:00.075',-1.034,-5.973,-4.939,3.503,1.952,-5.456,2.795,2.735,2.949,2.559,2.493,2.244,0.478,-3.095,-0.327
'0:00.076',-1.04,-5.984,-4.944,3.511,1.952,-5.463,2.793,2.731,2.941,2.555,2.49,2.243,0.477,-3.104,-0.324
'0:00.077',-1.05,-5.993,-4.943,3.521,1.946,-5.468,2.795,2.728,2.936,2.55,2.489,2.241,0.474,-3.116,-0.32
'0:00.078',-1.05,-5.987,-4.938,3.518,1.944,-5.462,2.795,2.725,2.933,2.547,2.492,2.245,0.475,-3.106,-0.319
'0:00.079',-1.046,-5.986,-4.938,3.516,1.946,-5.462,2.789,2.716,2.924,2.538,2.488,2.244,0.474,-3.092,-0.315
'0:00.080',-1.048,-5.986,-4.938,3.517,1.944,-5.461,2.784,2.707,2.914,2.529,2.482,2.237,0.47,-3.092,-0.313
'0:00.081',-1.046,-5.984,-4.938,3.515,1.946,-5.46,2.784,2.704,2.913,2.526,2.482,2.24,0.471,-3.095,-0.312
'0:00.082',-1.044,-5.985,-4.941,3.514,1.948,-5.463,2.783,2.704,2.909,2.523,2.482,2.244,0.472,-3.103,-0.309
'0:00.083',-1.044,-5.987,-4.942,3.516,1.948,-5.464,2.783,2.701,2.901,2.515,2.478,2.243,0.469,-3.106,-0.304
'0:00.084',-1.046,-5.989,-4.943,3.518,1.948,-5.465,2.784,2.697,2.894,2.509,2.473,2.24,0.465,-3.098,-0.298
'0:00.085',-1.053,-5.99,-4.937,3.522,1.942,-5.463,2.783,2.69,2.886,2.5,2.466,2.236,0.461,-3.098,-0.29
'0:00.086',-1.061,-5.995,-4.933,3.528,1.936,-5.463,2.78,2.68,2.874,2.488,2.46,2.232,0.457,-3.105,-0.291
'0:00.087',-1.058,-5.993,-4.934,3.526,1.938,-5.463,2.78,2.675,2.865,2.48,2.454,2.23,0.454,-3.103,-0.291
'0:00.088',-1.06,-5.992,-4.931,3.526,1.935,-5.462,2.78,2.668,2.856,2.47,2.447,2.228,0.448,-3.105,-0.285
'0:00.089',-1.073,-6,-4.927,3.537,1.927,-5.463,2.78,2.662,2.845,2.459,2.438,2.221,0.439,-3.109,-0.284
'0:00.090',-1.083,-6.006,-4.923,3.545,1.919,-5.465,2.781,2.659,2.835,2.445,2.428,2.216,0.433,-3.107,-0.277
'0:00.091',-1.081,-5.998,-4.917,3.539,1.918,-5.457,2.779,2.651,2.825,2.433,2.417,2.212,0.428,-3.106,-0.272
'0:00.092',-1.081,-5.997,-4.915,3.538,1.917,-5.455,2.776,2.643,2.818,2.425,2.412,2.208,0.425,-3.106,-0.27
'0:00.093',-1.089,-6.008,-4.918,3.549,1.915,-5.463,2.777,2.638,2.81,2.417,2.406,2.204,0.421,-3.115,-0.263
'0:00.094',-1.099,-6.018,-4.918,3.558,1.91,-5.468,2.777,2.63,2.8,2.406,2.396,2.2,0.415,-3.123,-0.261
'0:00.095',-1.102,-6.022,-4.92,3.562,1.909,-5.471,2.774,2.618,2.782,2.39,2.382,2.193,0.407,-3.125,-0.259
'0:00.096',-1.101,-6.018,-4.917,3.559,1.908,-5.466,2.773,2.612,2.772,2.379,2.373,2.188,0.4,-3.122,-0.254
'0:00.097',-1.104,-6.013,-4.909,3.558,1.902,-5.461,2.774,2.611,2.765,2.37,2.369,2.187,0.395,-3.115,-0.246
'0:00.098',-1.109,-6.016,-4.907,3.562,1.899,-5.461,2.773,2.603,2.755,2.36,2.363,2.181,0.39,-3.118,-0.24
'0:00.099',-1.116,-6.025,-4.908,3.571,1.895,-5.466,2.773,2.596,2.744,2.347,2.354,2.175,0.382,-3.127,-0.238
'0:00.100',-1.122,-6.029,-4.907,3.575,1.892,-5.468,2.772,2.585,2.728,2.33,2.343,2.168,0.372,-3.129,-0.231
'0:00.101',-1.127,-6.026,-4.899,3.576,1.887,-5.463,2.773,2.579,2.721,2.322,2.34,2.169,0.368,-3.116,-0.225
'0:00.102',-1.131,-6.032,-4.899,3.582,1.883,-5.465,2.774,2.576,2.716,2.315,2.333,2.163,0.363,-3.123,-0.229
'0:00.103',-1.133,-6.04,-4.907,3.587,1.887,-5.473,2.776,2.575,2.71,2.309,2.326,2.155,0.357,-3.135,-0.231
'0:00.104',-1.134,-6.046,-4.912,3.591,1.889,-5.479,2.776,2.571,2.703,2.303,2.32,2.154,0.353,-3.142,-0.224
'0:00.105',-1.141,-6.043,-4.902,3.592,1.879,-5.472,2.776,2.566,2.693,2.291,2.309,2.147,0.343,-3.142,-0.22
'0:00.106',-1.149,-6.038,-4.889,3.594,1.869,-5.463,2.78,2.564,2.688,2.284,2.304,2.145,0.338,-3.131,-0.217
'0:00.107',-1.153,-6.046,-4.892,3.599,1.869,-5.469,2.776,2.555,2.675,2.275,2.299,2.143,0.337,-3.135,-0.213
'0:00.108',-1.161,-6.056,-4.895,3.608,1.867,-5.476,2.772,2.545,2.665,2.261,2.291,2.136,0.331,-3.139,-0.211
'0:00.109',-1.165,-6.059,-4.893,3.612,1.863,-5.476,2.772,2.536,2.658,2.251,2.283,2.129,0.325,-3.138,-0.209
'0:00.110',-1.167,-6.061,-4.894,3.614,1.863,-5.477,2.769,2.529,2.646,2.24,2.275,2.125,0.32,-3.143,-0.203
'0:00.111',-1.161,-6.064,-4.902,3.612,1.871,-5.484,2.766,2.522,2.635,2.23,2.271,2.124,0.319,-3.148,-0.191
'0:00.112',-1.165,-6.072,-4.906,3.619,1.87,-5.489,2.763,2.513,2.625,2.22,2.261,2.119,0.315,-3.15,-0.185
'0:00.113',-1.182,-6.08,-4.897,3.631,1.857,-5.488,2.763,2.506,2.614,2.208,2.255,2.112,0.303,-3.145,-0.183
'0:00.114',-1.188,-6.079,-4.891,3.633,1.852,-5.485,2.762,2.497,2.603,2.198,2.249,2.107,0.297,-3.145,-0.179
'0:00.115',-1.192,-6.082,-4.89,3.636,1.849,-5.486,2.761,2.49,2.593,2.188,2.241,2.103,0.292,-3.152,-0.176
'0:00.116',-1.198,-6.085,-4.885,3.641,1.843,-5.484,2.762,2.487,2.585,2.181,2.236,2.101,0.288,-3.151,-0.174
'0:00.117',-1.202,-6.09,-4.888,3.645,1.843,-5.489,2.764,2.483,2.578,2.174,2.229,2.099,0.284,-3.156,-0.173
'0:00.118',-1.202,-6.094,-4.893,3.647,1.845,-5.493,2.764,2.477,2.567,2.162,2.222,2.095,0.279,-3.162,-0.168
'0:00.119',-1.204,-6.096,-4.891,3.65,1.843,-5.494,2.764,2.475,2.562,2.155,2.216,2.091,0.274,-3.162,-0.166
'0:00.120',-1.207,-6.1,-4.893,3.653,1.843,-5.496,2.764,2.468,2.552,2.145,2.208,2.086,0.268,-3.167,-0.165
'0:00.121',-1.215,-6.104,-4.889,3.659,1.837,-5.497,2.762,2.459,2.538,2.131,2.198,2.078,0.259,-3.162,-0.158
'0:00.122',-1.222,-6.106,-4.885,3.663,1.831,-5.495,2.764,2.458,2.533,2.123,2.192,2.074,0.253,-3.159,-0.155
'0:00.123',-1.22,-6.107,-4.886,3.663,1.833,-5.496,2.764,2.453,2.527,2.116,2.187,2.069,0.248,-3.158,-0.157
'0:00.124',-1.228,-6.111,-4.883,3.668,1.827,-5.497,2.765,2.451,2.523,2.11,2.182,2.064,0.242,-3.158,-0.155
'0:00.125',-1.229,-6.109,-4.88,3.669,1.825,-5.495,2.765,2.45,2.521,2.109,2.181,2.067,0.241,-3.163,-0.152
'0:00.126',-1.225,-6.109,-4.883,3.667,1.829,-5.496,2.764,2.447,2.517,2.106,2.179,2.067,0.241,-3.165,-0.147
'0:00.127',-1.232,-6.111,-4.878,3.671,1.823,-5.494,2.764,2.441,2.507,2.098,2.173,2.062,0.236,-3.167,-0.145
'0:00.128',-1.239,-6.112,-4.872,3.675,1.817,-5.492,2.76,2.432,2.498,2.091,2.168,2.059,0.234,-3.164,-0.143
'0:00.129',-1.242,-6.112,-4.87,3.676,1.813,-5.49,2.758,2.425,2.49,2.086,2.163,2.058,0.233,-3.167,-0.142
'0:00.130',-1.254,-6.119,-4.864,3.686,1.804,-5.492,2.757,2.423,2.487,2.083,2.159,2.058,0.228,-3.17,-0.139
'0:00.131',-1.265,-6.13,-4.864,3.697,1.8,-5.497,2.761,2.421,2.482,2.075,2.153,2.053,0.221,-3.175,-0.137
'0:00.132',-1.265,-6.13,-4.865,3.697,1.8,-5.497,2.761,2.417,2.474,2.066,2.145,2.048,0.216,-3.171,-0.13
'0:00.133',-1.268,-6.13,-4.862,3.699,1.796,-5.495,2.76,2.412,2.465,2.056,2.137,2.045,0.211,-3.166,-0.127
'0:00.134',-1.264,-6.128,-4.864,3.696,1.8,-5.496,2.76,2.408,2.457,2.046,2.132,2.043,0.209,-3.166,-0.128
'0:00.135',-1.26,-6.133,-4.873,3.696,1.806,-5.503,2.757,2.405,2.453,2.04,2.127,2.042,0.207,-3.168,-0.121
'0:00.136',-1.26,-6.141,-4.88,3.7,1.809,-5.51,2.758,2.403,2.446,2.034,2.122,2.038,0.204,-3.185,-0.118
'0:00.137',-1.264,-6.135,-4.872,3.699,1.804,-5.503,2.762,2.403,2.446,2.034,2.121,2.035,0.201,-3.177,-0.119
'0:00.138',-1.271,-6.138,-4.867,3.704,1.798,-5.502,2.765,2.403,2.447,2.034,2.119,2.033,0.197,-3.177,-0.117
'0:00.139',-1.267,-6.141,-4.873,3.704,1.802,-5.506,2.765,2.4,2.442,2.028,2.114,2.032,0.199,-3.183,-0.117
'0:00.140',-1.259,-6.138,-4.878,3.697,1.81,-5.508,2.761,2.396,2.436,2.021,2.109,2.029,0.199,-3.18,-0.117
'0:00.141',-1.262,-6.14,-4.877,3.7,1.807,-5.508,2.761,2.392,2.432,2.015,2.106,2.025,0.194,-3.183,-0.114
'0:00.142',-1.27,-6.138,-4.868,3.704,1.798,-5.503,2.763,2.391,2.431,2.013,2.102,2.023,0.19,-3.178,-0.11
'0:00.143',-1.282,-6.143,-4.861,3.712,1.79,-5.501,2.765,2.393,2.43,2.014,2.1,2.019,0.185,-3.185,-0.112
'0:00.144',-1.289,-6.143,-4.854,3.716,1.782,-5.498,2.766,2.392,2.429,2.012,2.098,2.018,0.182,-3.181,-0.112
'0:00.145',-1.286,-6.141,-4.854,3.713,1.784,-5.497,2.761,2.388,2.423,2.008,2.092,2.014,0.181,-3.175,-0.107
'0:00.146',-1.284,-6.146,-4.861,3.714,1.788,-5.503,2.757,2.381,2.416,2.002,2.09,2.012,0.181,-3.182,-0.107
'0:00.147',-1.286,-6.147,-4.861,3.716,1.788,-5.504,2.759,2.38,2.412,1.997,2.087,2.01,0.179,-3.183,-0.107
'0:00.148',-1.288,-6.153,-4.864,3.72,1.788,-5.508,2.757,2.375,2.405,1.99,2.082,2.007,0.178,-3.192,-0.102
'0:00.149',-1.289,-6.15,-4.861,3.719,1.786,-5.505,2.756,2.37,2.401,1.984,2.078,2.006,0.177,-3.19,-0.099
'0:00.150',-1.29,-6.142,-4.851,3.716,1.78,-5.497,2.758,2.374,2.401,1.984,2.076,2.005,0.173,-3.187,-0.104
'0:00.151',-1.29,-6.149,-4.857,3.719,1.784,-5.503,2.759,2.371,2.397,1.98,2.071,2.001,0.171,-3.193,-0.105
'0:00.152',-1.297,-6.146,-4.848,3.721,1.776,-5.497,2.762,2.37,2.397,1.98,2.071,2,0.168,-3.179,-0.1
'0:00.153',-1.302,-6.147,-4.846,3.724,1.772,-5.496,2.764,2.369,2.397,1.982,2.072,2.002,0.17,-3.183,-0.099
'0:00.154',-1.294,-6.149,-4.854,3.721,1.78,-5.5,2.761,2.367,2.396,1.98,2.068,2.001,0.171,-3.188,-0.098
'0:00.155',-1.286,-6.145,-4.859,3.715,1.786,-5.502,2.763,2.369,2.396,1.98,2.067,2.001,0.17,-3.18,-0.093
'0:00.156',-1.288,-6.154,-4.866,3.72,1.789,-5.51,2.764,2.369,2.393,1.976,2.063,1.998,0.17,-3.192,-0.095
'0:00.157',-1.29,-6.155,-4.864,3.722,1.786,-5.509,2.764,2.369,2.391,1.976,2.063,1.996,0.168,-3.192,-0.095
'0:00.158',-1.288,-6.154,-4.866,3.72,1.789,-5.51,2.764,2.367,2.393,1.978,2.067,1.998,0.169,-3.191,-0.092
'0:00.159',-1.293,-6.156,-4.862,3.724,1.784,-5.509,2.761,2.363,2.391,1.976,2.066,1.999,0.169,-3.186,-0.09
'0:00.160',-1.292,-6.149,-4.856,3.72,1.782,-5.503,2.76,2.358,2.387,1.972,2.064,1.998,0.169,-3.186,-0.092
'0:00.161',-1.296,-6.151,-4.854,3.723,1.779,-5.502,2.764,2.361,2.387,1.972,2.064,1.998,0.168,-3.188,-0.09
'0:00.162',-1.303,-6.152,-4.848,3.727,1.772,-5.5,2.765,2.366,2.389,1.976,2.067,2,0.167,-3.191,-0.096
'0:00.163',-1.294,-6.149,-4.854,3.721,1.78,-5.502,2.763,2.364,2.386,1.975,2.067,1.998,0.169,-3.196,-0.099
'0:00.164',-1.292,-6.15,-4.857,3.72,1.782,-5.503,2.761,2.365,2.387,1.974,2.064,1.996,0.167,-3.192,-0.093
'0:00.165',-1.296,-6.149,-4.851,3.722,1.777,-5.5,2.765,2.369,2.392,1.98,2.064,1.999,0.166,-3.191,-0.092
'0:00.166',-1.302,-6.15,-4.848,3.725,1.773,-5.498,2.771,2.374,2.396,1.983,2.067,2.001,0.164,-3.193,-0.093
'0:00.167',-1.302,-6.154,-4.851,3.728,1.774,-5.503,2.768,2.373,2.392,1.98,2.062,1.997,0.162,-3.199,-0.099
'0:00.168',-1.309,-6.157,-4.847,3.732,1.768,-5.502,2.765,2.372,2.388,1.978,2.061,1.996,0.16,-3.196,-0.097
'0:00.169',-1.308,-6.155,-4.846,3.731,1.769,-5.5,2.765,2.372,2.388,1.977,2.063,1.994,0.159,-3.197,-0.099
'0:00.170',-1.294,-6.15,-4.855,3.722,1.78,-5.503,2.761,2.368,2.385,1.976,2.061,1.994,0.16,-3.191,-0.098
'0:00.171',-1.295,-6.151,-4.856,3.723,1.78,-5.503,2.764,2.371,2.386,1.978,2.061,1.996,0.16,-3.187,-0.096
'0:00.172',-1.298,-6.159,-4.86,3.728,1.78,-5.51,2.764,2.367,2.385,1.976,2.058,1.994,0.159,-3.196,-0.097
'0:00.173',-1.298,-6.16,-4.862,3.728,1.782,-5.511,2.76,2.361,2.382,1.974,2.058,1.994,0.159,-3.201,-0.095
'0:00.174',-1.3,-6.16,-4.859,3.729,1.78,-5.509,2.757,2.362,2.385,1.978,2.062,1.994,0.162,-3.203,-0.098
'0:00.175',-1.304,-6.163,-4.859,3.733,1.776,-5.511,2.757,2.361,2.382,1.976,2.062,1.996,0.163,-3.201,-0.091
'0:00.176',-1.306,-6.168,-4.861,3.736,1.778,-5.514,2.762,2.361,2.381,1.974,2.061,1.998,0.162,-3.207,-0.089
'0:00.177',-1.304,-6.162,-4.857,3.732,1.776,-5.51,2.76,2.361,2.381,1.974,2.06,1.994,0.161,-3.2,-0.091
'0:00.178',-1.308,-6.159,-4.85,3.733,1.77,-5.504,2.76,2.362,2.381,1.976,2.062,1.995,0.161,-3.196,-0.094
'0:00.179',-1.315,-6.164,-4.848,3.739,1.766,-5.505,2.764,2.365,2.384,1.976,2.064,1.994,0.162,-3.201,-0.098
'0:00.180',-1.308,-6.162,-4.853,3.735,1.772,-5.506,2.761,2.359,2.38,1.97,2.058,1.992,0.161,-3.199,-0.09
'0:00.181',-1.302,-6.163,-4.861,3.732,1.778,-5.512,2.763,2.358,2.38,1.968,2.059,1.994,0.161,-3.2,-0.089
'0:00.182',-1.302,-6.159,-4.856,3.73,1.776,-5.506,2.764,2.362,2.382,1.97,2.058,1.994,0.157,-3.192,-0.095
'0:00.183',-1.302,-6.156,-4.854,3.728,1.776,-5.505,2.763,2.362,2.381,1.968,2.055,1.992,0.155,-3.196,-0.094
'0:00.184',-1.304,-6.154,-4.848,3.728,1.772,-5.501,2.762,2.362,2.381,1.97,2.055,1.991,0.155,-3.196,-0.095
'0:00.185',-1.304,-6.151,-4.846,3.727,1.771,-5.498,2.762,2.363,2.381,1.972,2.055,1.992,0.155,-3.188,-0.094
'0:00.186',-1.302,-6.155,-4.852,3.728,1.774,-5.503,2.762,2.362,2.379,1.97,2.057,1.992,0.157,-3.193,-0.093
'0:00.187',-1.303,-6.151,-4.848,3.727,1.772,-5.499,2.763,2.362,2.381,1.974,2.057,1.992,0.156,-3.192,-0.096
'0:00.188',-1.308,-6.157,-4.85,3.732,1.771,-5.503,2.767,2.362,2.381,1.974,2.055,1.992,0.154,-3.204,-0.095
'0:00.189',-1.309,-6.159,-4.849,3.733,1.77,-5.504,2.765,2.364,2.38,1.973,2.054,1.991,0.155,-3.203,-0.09
'0:00.190',-1.306,-6.151,-4.843,3.728,1.768,-5.497,2.763,2.365,2.384,1.976,2.055,1.992,0.162,-3.191,-0.091
'0:00.191',-1.31,-6.152,-4.841,3.73,1.766,-5.496,2.764,2.365,2.384,1.977,2.054,1.988,0.159,-3.188,-0.091
'0:00.192',-1.308,-6.155,-4.846,3.731,1.768,-5.5,2.767,2.369,2.385,1.978,2.053,1.985,0.154,-3.189,-0.091
'0:00.193',-1.303,-6.147,-4.844,3.724,1.77,-5.495,2.764,2.37,2.386,1.977,2.052,1.984,0.156,-3.188,-0.098
'0:00.194',-1.308,-6.146,-4.838,3.726,1.765,-5.492,2.763,2.37,2.386,1.976,2.05,1.983,0.154,-3.194,-0.099
'0:00.195',-1.304,-6.146,-4.842,3.724,1.769,-5.494,2.763,2.37,2.385,1.972,2.049,1.984,0.157,-3.196,-0.096
'0:00.196',-1.301,-6.146,-4.844,3.723,1.772,-5.495,2.763,2.369,2.384,1.971,2.047,1.984,0.154,-3.186,-0.093
'0:00.197',-1.295,-6.149,-4.854,3.721,1.779,-5.501,2.765,2.369,2.385,1.972,2.051,1.988,0.156,-3.186,-0.091
'0:00.198',-1.288,-6.144,-4.854,3.715,1.783,-5.498,2.766,2.372,2.386,1.972,2.053,1.99,0.157,-3.188,-0.093
'0:00.199',-1.29,-6.146,-4.854,3.718,1.782,-5.5,2.765,2.373,2.386,1.973,2.05,1.986,0.154,-3.196,-0.099
'0:00.200',-1.29,-6.145,-4.854,3.717,1.782,-5.5,2.764,2.373,2.389,1.974,2.05,1.986,0.156,-3.195,-0.102
'0:00.201',-1.294,-6.146,-4.851,3.719,1.778,-5.498,2.764,2.376,2.392,1.979,2.053,1.987,0.157,-3.194,-0.101
'0:00.202',-1.294,-6.149,-4.854,3.721,1.779,-5.5,2.762,2.374,2.394,1.98,2.056,1.987,0.157,-3.196,-0.098
'0:00.203',-1.302,-6.147,-4.845,3.724,1.772,-5.495,2.762,2.373,2.395,1.98,2.054,1.986,0.155,-3.184,-0.098
'0:00.204',-1.302,-6.144,-4.843,3.723,1.77,-5.493,2.76,2.372,2.393,1.978,2.051,1.985,0.156,-3.178,-0.098
'0:00.205',-1.298,-6.146,-4.846,3.721,1.774,-5.495,2.759,2.367,2.39,1.972,2.048,1.984,0.157,-3.182,-0.096
'0:00.206',-1.304,-6.153,-4.848,3.728,1.772,-5.5,2.76,2.365,2.388,1.97,2.044,1.981,0.153,-3.188,-0.094
'0:00.207',-1.302,-6.149,-4.847,3.725,1.772,-5.498,2.76,2.367,2.39,1.971,2.045,1.982,0.155,-3.188,-0.095
'0:00.208',-1.304,-6.144,-4.84,3.724,1.768,-5.492,2.764,2.369,2.392,1.974,2.05,1.984,0.155,-3.185,-0.093
'0:00.209',-1.306,-6.139,-4.833,3.723,1.763,-5.486,2.766,2.368,2.393,1.976,2.053,1.984,0.153,-3.179,-0.095
'0:00.210',-1.298,-6.138,-4.839,3.718,1.77,-5.489,2.764,2.369,2.392,1.974,2.053,1.985,0.154,-3.187,-0.095
'0:00.211',-1.299,-6.143,-4.843,3.72,1.772,-5.493,2.76,2.369,2.389,1.974,2.051,1.984,0.154,-3.188,-0.09
'0:00.212',-1.302,-6.139,-4.837,3.72,1.768,-5.488,2.764,2.371,2.394,1.976,2.054,1.986,0.154,-3.176,-0.093
'0:00.213',-1.3,-6.144,-4.843,3.722,1.771,-5.494,2.767,2.374,2.397,1.978,2.054,1.984,0.155,-3.186,-0.092
'0:00.214',-1.3,-6.146,-4.846,3.723,1.773,-5.496,2.764,2.373,2.397,1.976,2.057,1.987,0.159,-3.195,-0.098
'0:00.215',-1.3,-6.143,-4.843,3.72,1.772,-5.492,2.764,2.376,2.398,1.98,2.062,1.993,0.162,-3.187,-0.101
'0:00.216',-1.3,-6.145,-4.846,3.722,1.772,-5.495,2.766,2.38,2.401,1.984,2.062,1.992,0.16,-3.183,-0.098
'0:00.217',-1.294,-6.144,-4.851,3.719,1.778,-5.497,2.764,2.379,2.401,1.983,2.061,1.992,0.162,-3.182,-0.098
'0:00.218',-1.3,-6.144,-4.845,3.721,1.772,-5.494,2.765,2.379,2.401,1.982,2.062,1.992,0.162,-3.173,-0.098
'0:00.219',-1.308,-6.149,-4.84,3.728,1.766,-5.494,2.767,2.378,2.4,1.981,2.059,1.99,0.162,-3.179,-0.102
'0:00.220',-1.3,-6.147,-4.846,3.723,1.773,-5.497,2.768,2.38,2.402,1.984,2.063,1.994,0.164,-3.179,-0.101
'0:00.221',-1.296,-6.137,-4.841,3.716,1.772,-5.489,2.768,2.381,2.406,1.987,2.067,1.996,0.165,-3.168,-0.101
'0:00.222',-1.3,-6.139,-4.839,3.719,1.77,-5.489,2.768,2.378,2.405,1.986,2.067,1.995,0.163,-3.171,-0.101
'0:00.223',-1.296,-6.139,-4.843,3.716,1.774,-5.491,2.766,2.377,2.404,1.987,2.07,1.996,0.166,-3.172,-0.1
'0:00.224',-1.289,-6.136,-4.846,3.712,1.778,-5.49,2.76,2.374,2.401,1.985,2.063,1.992,0.166,-3.178,-0.101
'0:00.225',-1.286,-6.139,-4.853,3.712,1.783,-5.496,2.758,2.373,2.401,1.984,2.059,1.988,0.165,-3.189,-0.103
'0:00.226',-1.29,-6.146,-4.855,3.717,1.782,-5.5,2.76,2.378,2.405,1.986,2.059,1.988,0.164,-3.192,-0.103
'0:00.227',-1.295,-6.151,-4.855,3.723,1.78,-5.503,2.762,2.38,2.405,1.986,2.059,1.985,0.161,-3.202,-0.105
'0:00.228',-1.298,-6.146,-4.848,3.721,1.775,-5.497,2.762,2.377,2.404,1.986,2.059,1.985,0.16,-3.196,-0.105
'0:00.229',-1.3,-6.142,-4.841,3.72,1.77,-5.492,2.762,2.376,2.403,1.986,2.058,1.984,0.158,-3.188,-0.105
'0:00.230',-1.297,-6.138,-4.841,3.717,1.772,-5.489,2.765,2.38,2.406,1.99,2.062,1.986,0.16,-3.182,-0.102
'0:00.231',-1.3,-6.135,-4.834,3.717,1.766,-5.484,2.768,2.386,2.411,1.994,2.064,1.99,0.161,-3.166,-0.099
'0:00.232',-1.296,-6.138,-4.841,3.717,1.772,-5.489,2.763,2.384,2.408,1.988,2.058,1.986,0.159,-3.181,-0.102
'0:00.233',-1.285,-6.141,-4.856,3.713,1.785,-5.498,2.758,2.382,2.405,1.986,2.058,1.986,0.164,-3.193,-0.1
'0:00.234',-1.286,-6.141,-4.854,3.713,1.784,-5.497,2.76,2.384,2.405,1.986,2.061,1.988,0.166,-3.187,-0.105
'0:00.235',-1.298,-6.149,-4.85,3.723,1.776,-5.499,2.759,2.382,2.402,1.983,2.058,1.984,0.163,-3.188,-0.108
'0:00.236',-1.308,-6.154,-4.846,3.73,1.769,-5.5,2.76,2.383,2.404,1.984,2.061,1.986,0.162,-3.183,-0.106
'0:00.237',-1.31,-6.155,-4.844,3.732,1.766,-5.499,2.763,2.385,2.406,1.989,2.064,1.99,0.164,-3.18,-0.105
'0:00.238',-1.312,-6.154,-4.842,3.732,1.765,-5.498,2.764,2.392,2.413,1.994,2.067,1.992,0.165,-3.182,-0.106
'0:00.239',-1.298,-6.147,-4.848,3.721,1.775,-5.497,2.759,2.389,2.411,1.992,2.068,1.992,0.168,-3.189,-0.106
'0:00.240',-1.295,-6.144,-4.849,3.719,1.776,-5.497,2.753,2.385,2.407,1.99,2.067,1.992,0.169,-3.194,-0.099
'0:00.241',-1.302,-6.144,-4.841,3.723,1.769,-5.492,2.755,2.384,2.404,1.988,2.067,1.992,0.167,-3.188,-0.1
'0:00.242',-1.305,-6.146,-4.84,3.725,1.767,-5.492,2.76,2.385,2.404,1.986,2.064,1.992,0.167,-3.188,-0.106
'0:00.243',-1.298,-6.143,-4.845,3.72,1.773,-5.494,2.757,2.385,2.406,1.99,2.066,1.994,0.17,-3.188,-0.105
'0:00.244',-1.292,-6.14,-4.848,3.715,1.778,-5.494,2.756,2.384,2.408,1.991,2.067,1.998,0.171,-3.177,-0.102
'0:00.245',-1.296,-6.144,-4.847,3.72,1.775,-5.495,2.76,2.388,2.409,1.992,2.067,1.996,0.168,-3.174,-0.1
'0:00.246',-1.296,-6.144,-4.848,3.72,1.775,-5.495,2.757,2.384,2.408,1.993,2.064,1.993,0.167,-3.177,-0.099
'0:00.247',-1.297,-6.145,-4.848,3.72,1.775,-5.496,2.756,2.379,2.409,1.994,2.064,1.992,0.167,-3.179,-0.104
'0:00.248',-1.298,-6.149,-4.851,3.723,1.776,-5.5,2.756,2.377,2.409,1.994,2.065,1.992,0.167,-3.187,-0.104
'0:00.249',-1.296,-6.149,-4.852,3.721,1.778,-5.5,2.757,2.378,2.406,1.992,2.063,1.992,0.166,-3.185,-0.101
'0:00.250',-1.297,-6.15,-4.853,3.723,1.778,-5.501,2.756,2.381,2.405,1.987,2.061,1.989,0.164,-3.187,-0.1
'0:00.251',-1.298,-6.152,-4.853,3.724,1.777,-5.502,2.754,2.382,2.404,1.986,2.058,1.988,0.164,-3.188,-0.099
'0:00.252',-1.296,-6.147,-4.851,3.721,1.777,-5.499,2.758,2.388,2.409,1.988,2.061,1.99,0.166,-3.184,-0.101
'0:00.253',-1.292,-6.143,-4.851,3.717,1.778,-5.497,2.76,2.39,2.411,1.988,2.061,1.99,0.165,-3.182,-0.103
'0:00.254',-1.29,-6.139,-4.849,3.715,1.779,-5.494,2.757,2.385,2.406,1.985,2.058,1.986,0.161,-3.179,-0.101
'0:00.255',-1.288,-6.136,-4.846,3.712,1.778,-5.49,2.756,2.384,2.403,1.984,2.059,1.986,0.161,-3.179,-0.097
'0:00.256',-1.278,-6.133,-4.854,3.704,1.788,-5.494,2.748,2.374,2.393,1.975,2.051,1.982,0.161,-3.179,-0.095
'0:00.257',-1.29,-6.136,-4.847,3.712,1.778,-5.492,2.746,2.369,2.385,1.964,2.042,1.974,0.155,-3.179,-0.095
'0:00.258',-1.31,-6.131,-4.821,3.72,1.755,-5.476,2.757,2.378,2.394,1.972,2.049,1.978,0.154,-3.167,-0.096
'0:00.259',-1.306,-6.13,-4.824,3.717,1.758,-5.476,2.757,2.377,2.393,1.972,2.049,1.98,0.159,-3.164,-0.095
'0:00.260',-1.299,-6.136,-4.837,3.717,1.768,-5.486,2.755,2.377,2.389,1.969,2.045,1.976,0.157,-3.173,-0.098
'0:00.261',-1.294,-6.136,-4.841,3.715,1.774,-5.489,2.756,2.379,2.393,1.974,2.048,1.977,0.157,-3.173,-0.097
'0:00.262',-1.295,-6.139,-4.843,3.716,1.774,-5.491,2.752,2.379,2.393,1.974,2.047,1.978,0.159,-3.177,-0.101
'0:00.263',-1.298,-6.136,-4.838,3.716,1.77,-5.487,2.752,2.378,2.389,1.975,2.048,1.978,0.159,-3.174,-0.104
'0:00.264',-1.298,-6.133,-4.835,3.715,1.769,-5.484,2.755,2.378,2.39,1.976,2.048,1.978,0.159,-3.168,-0.098
'0:00.265',-1.292,-6.135,-4.841,3.713,1.774,-5.488,2.75,2.378,2.389,1.974,2.047,1.978,0.162,-3.174,-0.095
'0:00.266',-1.29,-6.135,-4.845,3.712,1.777,-5.489,2.748,2.376,2.387,1.97,2.046,1.978,0.164,-3.178,-0.095
'0:00.267',-1.29,-6.136,-4.846,3.712,1.778,-5.491,2.75,2.373,2.388,1.97,2.046,1.978,0.164,-3.179,-0.092
'0:00.268',-1.291,-6.136,-4.844,3.713,1.776,-5.489,2.749,2.37,2.385,1.968,2.046,1.977,0.161,-3.171,-0.091
'0:00.269',-1.292,-6.128,-4.835,3.711,1.771,-5.482,2.748,2.37,2.386,1.968,2.046,1.976,0.161,-3.163,-0.093
'0:00.270',-1.298,-6.129,-4.831,3.713,1.766,-5.48,2.75,2.371,2.387,1.968,2.047,1.979,0.161,-3.163,-0.095
'0:00.271',-1.294,-6.131,-4.835,3.712,1.77,-5.483,2.749,2.371,2.386,1.969,2.05,1.98,0.162,-3.168,-0.095
'0:00.272',-1.292,-6.13,-4.837,3.711,1.772,-5.484,2.748,2.371,2.386,1.968,2.049,1.98,0.162,-3.173,-0.096
'0:00.273',-1.298,-6.131,-4.832,3.715,1.767,-5.482,2.753,2.374,2.386,1.97,2.051,1.981,0.159,-3.172,-0.098
'0:00.274',-1.296,-6.132,-4.835,3.714,1.769,-5.483,2.759,2.38,2.391,1.973,2.057,1.987,0.161,-3.171,-0.1
'0:00.275',-1.296,-6.13,-4.833,3.713,1.768,-5.482,2.755,2.377,2.388,1.972,2.057,1.989,0.161,-3.17,-0.097
'0:00.276',-1.3,-6.128,-4.829,3.713,1.764,-5.479,2.751,2.37,2.382,1.968,2.055,1.986,0.158,-3.172,-0.096
'0:00.277',-1.301,-6.136,-4.834,3.718,1.766,-5.484,2.749,2.369,2.379,1.963,2.052,1.986,0.159,-3.175,-0.086
'0:00.278',-1.308,-6.139,-4.831,3.724,1.761,-5.485,2.749,2.367,2.376,1.963,2.052,1.984,0.156,-3.168,-0.084
'0:00.279',-1.307,-6.142,-4.835,3.724,1.764,-5.488,2.751,2.365,2.377,1.966,2.054,1.984,0.154,-3.171,-0.096
'0:00.280',-1.296,-6.145,-4.848,3.72,1.776,-5.496,2.751,2.368,2.378,1.966,2.054,1.982,0.155,-3.182,-0.098
'0:00.281',-1.296,-6.143,-4.846,3.719,1.775,-5.495,2.751,2.369,2.381,1.966,2.053,1.982,0.153,-3.179,-0.095
'0:00.282',-1.292,-6.14,-4.848,3.716,1.778,-5.494,2.748,2.366,2.378,1.964,2.05,1.98,0.152,-3.179,-0.097
'0:00.283',-1.29,-6.133,-4.843,3.712,1.776,-5.488,2.747,2.367,2.376,1.963,2.047,1.978,0.153,-3.175,-0.098
'0:00.284',-1.293,-6.133,-4.84,3.712,1.773,-5.486,2.747,2.367,2.376,1.962,2.046,1.976,0.15,-3.171,-0.097
'0:00.285',-1.3,-6.139,-4.838,3.719,1.768,-5.489,2.751,2.368,2.376,1.96,2.044,1.974,0.146,-3.176,-0.098
'0:00.286',-1.313,-6.145,-4.831,3.728,1.759,-5.488,2.754,2.371,2.378,1.962,2.045,1.977,0.146,-3.178,-0.096
'0:00.287',-1.319,-6.145,-4.825,3.732,1.753,-5.485,2.752,2.37,2.377,1.96,2.042,1.978,0.147,-3.175,-0.093
'0:00.288',-1.317,-6.146,-4.829,3.731,1.756,-5.487,2.749,2.368,2.373,1.956,2.036,1.976,0.146,-3.175,-0.092
'0:00.289',-1.312,-6.149,-4.836,3.731,1.762,-5.492,2.748,2.364,2.371,1.954,2.035,1.976,0.147,-3.182,-0.092
'0:00.290',-1.304,-6.141,-4.837,3.723,1.766,-5.489,2.748,2.364,2.37,1.95,2.037,1.978,0.149,-3.182,-0.089
'0:00.291',-1.297,-6.141,-4.843,3.718,1.773,-5.492,2.747,2.366,2.37,1.946,2.032,1.976,0.149,-3.183,-0.086
'0:00.292',-1.299,-6.14,-4.84,3.719,1.77,-5.489,2.747,2.366,2.371,1.946,2.034,1.977,0.149,-3.178,-0.087
'0:00.293',-1.296,-6.138,-4.84,3.716,1.772,-5.489,2.744,2.362,2.369,1.946,2.034,1.976,0.148,-3.175,-0.086
'0:00.294',-1.295,-6.139,-4.843,3.716,1.774,-5.491,2.743,2.36,2.366,1.942,2.035,1.975,0.15,-3.182,-0.084
'0:00.295',-1.298,-6.138,-4.839,3.717,1.77,-5.488,2.744,2.358,2.365,1.942,2.036,1.977,0.149,-3.179,-0.082
'0:00.296',-1.3,-6.138,-4.838,3.719,1.769,-5.488,2.744,2.358,2.362,1.941,2.033,1.976,0.149,-3.18,-0.081
'0:00.297',-1.302,-6.138,-4.835,3.72,1.766,-5.487,2.746,2.358,2.361,1.939,2.034,1.976,0.15,-3.181,-0.084
'0:00.298',-1.304,-6.135,-4.831,3.719,1.764,-5.482,2.746,2.357,2.36,1.938,2.034,1.976,0.148,-3.177,-0.084
'0:00.299',-1.308,-6.139,-4.83,3.723,1.761,-5.484,2.747,2.357,2.36,1.938,2.035,1.976,0.149,-3.18,-0.083
'0:00.300',-1.308,-6.144,-4.835,3.726,1.763,-5.489,2.749,2.361,2.365,1.944,2.038,1.979,0.152,-3.179,-0.084
'0:00.301',-1.304,-6.144,-4.84,3.724,1.768,-5.492,2.746,2.357,2.365,1.94,2.034,1.976,0.15,-3.186,-0.085
'0:00.302',-1.31,-6.149,-4.839,3.728,1.764,-5.494,2.744,2.354,2.361,1.937,2.027,1.972,0.146,-3.189,-0.077
'0:00.303',-1.315,-6.151,-4.835,3.732,1.76,-5.492,2.748,2.358,2.361,1.938,2.027,1.971,0.145,-3.176,-0.078
'0:00.304',-1.315,-6.147,-4.832,3.73,1.758,-5.489,2.751,2.361,2.361,1.937,2.027,1.97,0.145,-3.177,-0.083
'0:00.305',-1.312,-6.145,-4.832,3.728,1.76,-5.489,2.747,2.361,2.361,1.938,2.028,1.971,0.145,-3.179,-0.081
'0:00.306',-1.31,-6.141,-4.831,3.725,1.76,-5.486,2.745,2.362,2.359,1.939,2.026,1.972,0.145,-3.175,-0.082
'0:00.307',-1.312,-6.141,-4.829,3.726,1.758,-5.484,2.745,2.357,2.356,1.935,2.026,1.972,0.144,-3.176,-0.081
'0:00.308',-1.31,-6.144,-4.835,3.726,1.762,-5.489,2.737,2.347,2.348,1.927,2.022,1.972,0.146,-3.182,-0.076
'0:00.309',-1.31,-6.147,-4.837,3.728,1.764,-5.492,2.736,2.344,2.345,1.925,2.022,1.974,0.15,-3.186,-0.072
'0:00.310',-1.318,-6.149,-4.831,3.733,1.756,-5.49,2.74,2.35,2.35,1.927,2.024,1.974,0.15,-3.186,-0.075
'0:00.311',-1.319,-6.145,-4.825,3.732,1.753,-5.485,2.74,2.353,2.35,1.927,2.02,1.971,0.145,-3.171,-0.075
'0:00.312',-1.316,-6.141,-4.825,3.728,1.754,-5.483,2.74,2.357,2.354,1.931,2.022,1.971,0.144,-3.168,-0.076
'0:00.313',-1.312,-6.138,-4.827,3.724,1.758,-5.482,2.74,2.36,2.357,1.933,2.026,1.972,0.145,-3.174,-0.079
'0:00.314',-1.304,-6.131,-4.827,3.717,1.761,-5.479,2.74,2.357,2.357,1.933,2.027,1.971,0.142,-3.171,-0.079
'0:00.315',-1.307,-6.13,-4.823,3.718,1.758,-5.476,2.744,2.36,2.361,1.936,2.03,1.97,0.14,-3.168,-0.08
'0:00.316',-1.315,-6.136,-4.82,3.724,1.752,-5.478,2.747,2.361,2.361,1.935,2.029,1.968,0.136,-3.17,-0.08
'0:00.317',-1.308,-6.141,-4.832,3.724,1.762,-5.487,2.739,2.352,2.355,1.93,2.023,1.966,0.136,-3.175,-0.083
'0:00.318',-1.304,-6.141,-4.837,3.722,1.766,-5.489,2.733,2.345,2.351,1.926,2.021,1.964,0.137,-3.179,-0.08
'0:00.319',-1.306,-6.137,-4.83,3.721,1.762,-5.484,2.733,2.344,2.349,1.925,2.02,1.962,0.135,-3.183,-0.08
'0:00.320',-1.303,-6.133,-4.83,3.718,1.764,-5.481,2.734,2.345,2.349,1.924,2.018,1.962,0.136,-3.182,-0.082
'0:00.321',-1.313,-6.135,-4.822,3.724,1.754,-5.479,2.737,2.352,2.352,1.929,2.02,1.962,0.135,-3.17,-0.082
'0:00.322',-1.316,-6.138,-4.821,3.727,1.752,-5.479,2.736,2.353,2.352,1.93,2.02,1.962,0.137,-3.163,-0.079
'0:00.323',-1.31,-6.143,-4.832,3.727,1.76,-5.487,2.729,2.346,2.349,1.927,2.018,1.963,0.14,-3.175,-0.075
'0:00.324',-1.313,-6.149,-4.835,3.73,1.761,-5.492,2.728,2.342,2.345,1.927,2.019,1.965,0.141,-3.178,-0.077
'0:00.325',-1.315,-6.146,-4.83,3.73,1.758,-5.488,2.729,2.346,2.345,1.926,2.019,1.964,0.14,-3.175,-0.081
'0:00.326',-1.32,-6.146,-4.825,3.732,1.752,-5.486,2.732,2.351,2.349,1.931,2.021,1.966,0.141,-3.176,-0.081
'0:00.327',-1.317,-6.147,-4.83,3.732,1.756,-5.489,2.734,2.353,2.353,1.935,2.024,1.968,0.141,-3.172,-0.08
'0:00.328',-1.314,-6.146,-4.831,3.729,1.758,-5.488,2.736,2.355,2.357,1.937,2.025,1.968,0.14,-3.175,-0.08
'0:00.329',-1.319,-6.145,-4.825,3.732,1.752,-5.485,2.735,2.353,2.354,1.936,2.025,1.969,0.14,-3.174,-0.084
'0:00.330',-1.323,-6.146,-4.824,3.733,1.75,-5.484,2.735,2.351,2.352,1.932,2.024,1.968,0.138,-3.172,-0.082
'0:00.331',-1.321,-6.147,-4.827,3.733,1.752,-5.487,2.734,2.344,2.346,1.925,2.019,1.966,0.136,-3.177,-0.075
'0:00.332',-1.317,-6.144,-4.826,3.731,1.754,-5.485,2.732,2.34,2.34,1.92,2.017,1.963,0.132,-3.174,-0.07
'0:00.333',-1.312,-6.137,-4.824,3.724,1.756,-5.481,2.732,2.339,2.337,1.915,2.01,1.958,0.131,-3.175,-0.072
'0:00.334',-1.306,-6.141,-4.834,3.723,1.764,-5.487,2.728,2.332,2.333,1.908,2.006,1.958,0.133,-3.183,-0.068
'0:00.335',-1.306,-6.144,-4.838,3.724,1.766,-5.49,2.729,2.333,2.33,1.905,2.007,1.959,0.135,-3.184,-0.065
'0:00.336',-1.309,-6.145,-4.835,3.727,1.763,-5.49,2.73,2.334,2.332,1.907,2.008,1.958,0.136,-3.182,-0.068
'0:00.337',-1.317,-6.149,-4.83,3.732,1.756,-5.489,2.73,2.332,2.334,1.909,2.009,1.957,0.132,-3.175,-0.07
'0:00.338',-1.327,-6.147,-4.821,3.736,1.747,-5.484,2.735,2.333,2.336,1.911,2.009,1.956,0.129,-3.171,-0.07
'0:00.339',-1.329,-6.152,-4.822,3.74,1.746,-5.487,2.733,2.333,2.333,1.909,2.007,1.956,0.128,-3.176,-0.071
'0:00.340',-1.323,-6.148,-4.824,3.735,1.75,-5.486,2.734,2.336,2.334,1.91,2.007,1.956,0.127,-3.176,-0.072
'0:00.341',-1.319,-6.146,-4.827,3.732,1.754,-5.486,2.736,2.335,2.334,1.913,2.007,1.956,0.128,-3.175,-0.07
'0:00.342',-1.322,-6.143,-4.821,3.732,1.749,-5.481,2.736,2.337,2.339,1.916,2.01,1.958,0.126,-3.171,-0.07
'0:00.343',-1.321,-6.136,-4.814,3.728,1.746,-5.476,2.739,2.34,2.341,1.918,2.013,1.958,0.127,-3.172,-0.073
'0:00.344',-1.319,-6.143,-4.822,3.731,1.752,-5.482,2.737,2.335,2.334,1.914,2.011,1.958,0.132,-3.188,-0.075
'0:00.345',-1.322,-6.141,-4.818,3.731,1.748,-5.479,2.736,2.334,2.337,1.914,2.01,1.957,0.129,-3.176,-0.079
'0:00.346',-1.315,-6.136,-4.822,3.725,1.753,-5.479,2.733,2.332,2.336,1.913,2.008,1.956,0.129,-3.164,-0.074
'0:00.347',-1.306,-6.139,-4.833,3.722,1.764,-5.486,2.733,2.329,2.334,1.912,2.007,1.956,0.132,-3.175,-0.068
'0:00.348',-1.313,-6.142,-4.828,3.727,1.757,-5.484,2.736,2.334,2.337,1.915,2.01,1.956,0.13,-3.183,-0.07
'0:00.349',-1.317,-6.142,-4.824,3.729,1.754,-5.483,2.736,2.336,2.337,1.915,2.009,1.955,0.129,-3.181,-0.072
'0:00.350',-1.322,-6.144,-4.822,3.732,1.75,-5.482,2.739,2.336,2.336,1.913,2.007,1.954,0.128,-3.178,-0.071
'0:00.351',-1.325,-6.146,-4.821,3.735,1.748,-5.483,2.737,2.337,2.335,1.913,2.006,1.953,0.125,-3.179,-0.07
'0:00.352',-1.313,-6.147,-4.833,3.73,1.76,-5.49,2.732,2.332,2.332,1.91,2.005,1.954,0.128,-3.18,-0.068
'0:00.353',-1.319,-6.151,-4.832,3.734,1.756,-5.491,2.733,2.332,2.33,1.91,2.007,1.954,0.128,-3.18,-0.07
'0:00.354',-1.325,-6.15,-4.825,3.736,1.75,-5.487,2.732,2.33,2.332,1.911,2.01,1.954,0.127,-3.177,-0.072
'0:00.355',-1.317,-6.143,-4.825,3.729,1.754,-5.484,2.73,2.329,2.332,1.912,2.011,1.954,0.13,-3.172,-0.067
'0:00.356',-1.313,-6.133,-4.821,3.723,1.754,-5.477,2.73,2.333,2.335,1.912,2.007,1.952,0.128,-3.174,-0.069
'0:00.357',-1.315,-6.139,-4.823,3.727,1.754,-5.481,2.733,2.335,2.336,1.913,2.006,1.95,0.128,-3.178,-0.07
'0:00.358',-1.316,-6.144,-4.827,3.729,1.755,-5.485,2.735,2.336,2.337,1.914,2.006,1.95,0.129,-3.182,-0.073
'0:00.359',-1.315,-6.144,-4.829,3.729,1.757,-5.486,2.732,2.333,2.334,1.914,2.006,1.948,0.127,-3.184,-0.076
'0:00.360',-1.322,-6.144,-4.821,3.732,1.749,-5.482,2.732,2.33,2.333,1.915,2.009,1.949,0.129,-3.184,-0.072
'0:00.361',-1.325,-6.142,-4.816,3.733,1.746,-5.479,2.733,2.332,2.333,1.913,2.007,1.95,0.13,-3.188,-0.07
'0:00.362',-1.323,-6.141,-4.817,3.731,1.747,-5.479,2.732,2.332,2.329,1.912,2.006,1.949,0.129,-3.184,-0.068
'0:00.363',-1.322,-6.136,-4.814,3.729,1.746,-5.475,2.733,2.329,2.331,1.913,2.007,1.952,0.132,-3.174,-0.067
'0:00.364',-1.323,-6.147,-4.824,3.735,1.75,-5.485,2.733,2.33,2.33,1.913,2.006,1.952,0.13,-3.185,-0.068
'0:00.365',-1.32,-6.145,-4.824,3.732,1.752,-5.484,2.732,2.329,2.327,1.912,2.005,1.951,0.129,-3.188,-0.071
'0:00.366',-1.315,-6.144,-4.83,3.729,1.758,-5.487,2.731,2.327,2.325,1.908,2.002,1.952,0.131,-3.188,-0.066
'0:00.367',-1.312,-6.147,-4.834,3.729,1.76,-5.49,2.729,2.324,2.321,1.903,2.001,1.951,0.13,-3.186,-0.056
'0:00.368',-1.317,-6.139,-4.822,3.728,1.752,-5.48,2.73,2.325,2.325,1.905,2.004,1.952,0.131,-3.18,-0.062
'0:00.369',-1.322,-6.141,-4.819,3.732,1.748,-5.481,2.728,2.325,2.324,1.905,2.002,1.952,0.129,-3.186,-0.066
'0:00.370',-1.319,-6.139,-4.819,3.729,1.75,-5.479,2.729,2.325,2.324,1.901,2,1.952,0.129,-3.18,-0.067
'0:00.371',-1.312,-6.133,-4.821,3.723,1.754,-5.477,2.728,2.324,2.325,1.899,2,1.95,0.128,-3.176,-0.066
'0:00.372',-1.315,-6.136,-4.821,3.724,1.752,-5.478,2.728,2.32,2.32,1.893,1.996,1.948,0.126,-3.177,-0.063
'0:00.373',-1.327,-6.142,-4.814,3.734,1.744,-5.478,2.732,2.324,2.324,1.897,1.996,1.947,0.122,-3.183,-0.067
'0:00.374',-1.322,-6.138,-4.816,3.729,1.747,-5.477,2.731,2.322,2.325,1.899,1.995,1.946,0.121,-3.18,-0.068
'0:00.375',-1.315,-6.135,-4.819,3.724,1.752,-5.477,2.73,2.321,2.321,1.897,1.996,1.947,0.127,-3.179,-0.068
'0:00.376',-1.317,-6.139,-4.822,3.728,1.752,-5.481,2.732,2.324,2.324,1.899,2,1.948,0.128,-3.184,-0.066
'0:00.377',-1.317,-6.141,-4.823,3.728,1.753,-5.482,2.733,2.328,2.327,1.903,2.005,1.952,0.129,-3.18,-0.066
'0:00.378',-1.32,-6.145,-4.824,3.732,1.752,-5.484,2.735,2.328,2.329,1.905,2.006,1.952,0.129,-3.18,-0.068
'0:00.379',-1.319,-6.148,-4.828,3.733,1.754,-5.487,2.732,2.323,2.328,1.903,2.003,1.952,0.128,-3.182,-0.063
'0:00.380',-1.312,-6.141,-4.829,3.727,1.758,-5.485,2.728,2.322,2.324,1.899,1.999,1.95,0.128,-3.18,-0.061
'0:00.381',-1.314,-6.141,-4.826,3.727,1.756,-5.483,2.728,2.326,2.324,1.899,2.001,1.952,0.13,-3.182,-0.062
'0:00.382',-1.319,-6.145,-4.825,3.732,1.752,-5.484,2.73,2.327,2.327,1.903,2.002,1.952,0.128,-3.182,-0.064
'0:00.383',-1.319,-6.143,-4.824,3.731,1.752,-5.483,2.732,2.328,2.327,1.904,2.002,1.951,0.128,-3.179,-0.067
'0:00.384',-1.321,-6.139,-4.818,3.729,1.748,-5.479,2.729,2.326,2.325,1.902,2.002,1.95,0.129,-3.178,-0.065
'0:00.385',-1.323,-6.136,-4.813,3.729,1.745,-5.474,2.729,2.325,2.325,1.903,2.002,1.95,0.128,-3.178,-0.066
'0:00.386',-1.325,-6.139,-4.814,3.732,1.744,-5.476,2.732,2.328,2.325,1.901,1.999,1.948,0.126,-3.175,-0.066
'0:00.387',-1.329,-6.142,-4.811,3.735,1.741,-5.476,2.732,2.329,2.325,1.901,2,1.944,0.123,-3.178,-0.069
'0:00.388',-1.329,-6.144,-4.815,3.736,1.743,-5.479,2.732,2.329,2.327,1.903,2.003,1.947,0.123,-3.182,-0.068
'0:00.389',-1.323,-6.147,-4.824,3.735,1.75,-5.485,2.731,2.327,2.326,1.903,2.002,1.948,0.124,-3.179,-0.062
'0:00.390',-1.327,-6.148,-4.82,3.737,1.746,-5.484,2.731,2.327,2.328,1.904,2.002,1.948,0.123,-3.184,-0.068
'0:00.391',-1.327,-6.146,-4.819,3.736,1.746,-5.483,2.731,2.332,2.329,1.905,2.002,1.948,0.124,-3.189,-0.069
'0:00.392',-1.327,-6.141,-4.813,3.733,1.743,-5.477,2.728,2.326,2.324,1.899,2,1.946,0.123,-3.176,-0.062
'0:00.393',-1.328,-6.144,-4.816,3.736,1.744,-5.479,2.722,2.316,2.314,1.893,1.996,1.944,0.121,-3.177,-0.059
'0:00.394',-1.317,-6.138,-4.822,3.727,1.752,-5.479,2.718,2.316,2.316,1.893,1.996,1.946,0.123,-3.179,-0.064
'0:00.395',-1.315,-6.131,-4.815,3.723,1.75,-5.473,2.721,2.321,2.321,1.897,1.998,1.946,0.122,-3.171,-0.066
'0:00.396',-1.312,-6.133,-4.821,3.722,1.754,-5.477,2.722,2.318,2.319,1.893,1.998,1.946,0.122,-3.176,-0.064
'0:00.397',-1.31,-6.135,-4.824,3.721,1.756,-5.479,2.72,2.312,2.317,1.891,1.996,1.944,0.122,-3.182,-0.06
'0:00.398',-1.315,-6.135,-4.819,3.724,1.752,-5.476,2.723,2.316,2.32,1.893,1.999,1.944,0.121,-3.18,-0.065
'0:00.399',-1.327,-6.138,-4.811,3.732,1.742,-5.474,2.728,2.32,2.325,1.898,2.003,1.946,0.119,-3.181,-0.071
'0:00.400',-1.337,-6.141,-4.804,3.738,1.734,-5.473,2.729,2.322,2.326,1.901,2.003,1.944,0.116,-3.179,-0.068
'0:00.401',-1.327,-6.131,-4.803,3.728,1.738,-5.467,2.726,2.32,2.325,1.899,2.005,1.946,0.118,-3.174,-0.067
'0:00.402',-1.32,-6.127,-4.806,3.723,1.743,-5.466,2.722,2.315,2.321,1.898,2.002,1.946,0.121,-3.181,-0.066
'0:00.403',-1.315,-6.125,-4.809,3.72,1.747,-5.467,2.72,2.313,2.319,1.897,2.001,1.948,0.123,-3.181,-0.066
'0:00.404',-1.315,-6.127,-4.811,3.72,1.748,-5.468,2.724,2.317,2.321,1.899,2.004,1.951,0.126,-3.179,-0.067
'0:00.405',-1.313,-6.128,-4.814,3.72,1.75,-5.471,2.726,2.317,2.32,1.897,2.002,1.95,0.126,-3.175,-0.066
'0:00.406',-1.31,-6.128,-4.819,3.719,1.754,-5.473,2.724,2.316,2.317,1.894,1.998,1.948,0.127,-3.176,-0.061
'0:00.407',-1.313,-6.133,-4.819,3.723,1.752,-5.476,2.724,2.317,2.317,1.894,1.996,1.946,0.124,-3.18,-0.061
'0:00.408',-1.31,-6.128,-4.817,3.719,1.753,-5.472,2.723,2.314,2.314,1.893,1.994,1.945,0.124,-3.177,-0.063
'0:00.409',-1.31,-6.125,-4.816,3.717,1.753,-5.471,2.724,2.314,2.313,1.893,1.994,1.945,0.126,-3.177,-0.062
'0:00.410',-1.317,-6.127,-4.81,3.721,1.746,-5.468,2.727,2.317,2.313,1.893,1.994,1.944,0.124,-3.175,-0.062
'0:00.411',-1.322,-6.131,-4.809,3.727,1.743,-5.47,2.725,2.319,2.314,1.893,1.994,1.944,0.122,-3.176,-0.061
'0:00.412',-1.323,-6.13,-4.807,3.726,1.742,-5.468,2.723,2.314,2.311,1.889,1.992,1.942,0.12,-3.183,-0.06
'0:00.413',-1.317,-6.128,-4.811,3.721,1.747,-5.469,2.717,2.305,2.304,1.883,1.988,1.94,0.121,-3.182,-0.059
'0:00.414',-1.318,-6.133,-4.814,3.725,1.748,-5.474,2.718,2.308,2.304,1.885,1.99,1.938,0.121,-3.184,-0.062
'0:00.415',-1.32,-6.133,-4.813,3.727,1.746,-5.473,2.72,2.312,2.308,1.889,1.992,1.94,0.119,-3.186,-0.061
'0:00.416',-1.315,-6.132,-4.816,3.723,1.75,-5.474,2.724,2.316,2.312,1.891,1.994,1.942,0.119,-3.179,-0.061
'0:00.417',-1.311,-6.13,-4.819,3.72,1.754,-5.474,2.724,2.319,2.311,1.891,1.991,1.942,0.122,-3.179,-0.062
'0:00.418',-1.308,-6.13,-4.822,3.719,1.758,-5.476,2.717,2.315,2.308,1.886,1.986,1.938,0.122,-3.186,-0.061
'0:00.419',-1.317,-6.133,-4.816,3.724,1.75,-5.474,2.724,2.319,2.311,1.889,1.986,1.937,0.118,-3.18,-0.066
'0:00.420',-1.324,-6.132,-4.808,3.728,1.742,-5.47,2.725,2.32,2.313,1.893,1.989,1.938,0.118,-3.172,-0.069
'0:00.421',-1.327,-6.136,-4.809,3.73,1.741,-5.472,2.724,2.321,2.316,1.893,1.99,1.938,0.119,-3.178,-0.069
'0:00.422',-1.328,-6.133,-4.805,3.731,1.738,-5.469,2.729,2.326,2.322,1.897,1.996,1.944,0.121,-3.175,-0.068
'0:00.423',-1.327,-6.134,-4.806,3.731,1.74,-5.47,2.731,2.33,2.326,1.9,2,1.946,0.121,-3.173,-0.067
'0:00.424',-1.327,-6.137,-4.81,3.732,1.742,-5.473,2.729,2.329,2.323,1.899,2.001,1.946,0.121,-3.179,-0.069
'0:00.425',-1.321,-6.123,-4.803,3.721,1.741,-5.463,2.731,2.328,2.325,1.899,2.002,1.947,0.12,-3.171,-0.071
'0:00.426',-1.314,-6.114,-4.8,3.713,1.742,-5.457,2.731,2.325,2.328,1.899,2.002,1.948,0.123,-3.164,-0.069
'0:00.427',-1.308,-6.111,-4.803,3.709,1.747,-5.457,2.729,2.32,2.322,1.897,2.004,1.952,0.13,-3.168,-0.07
'0:00.428',-1.31,-6.11,-4.8,3.709,1.744,-5.455,2.728,2.321,2.322,1.897,2.004,1.952,0.129,-3.171,-0.075
'0:00.429',-1.32,-6.112,-4.792,3.716,1.736,-5.452,2.728,2.327,2.33,1.904,2.009,1.954,0.129,-3.163,-0.074
'0:00.430',-1.319,-6.109,-4.79,3.713,1.735,-5.449,2.732,2.334,2.337,1.909,2.014,1.956,0.131,-3.159,-0.076
'0:00.431',-1.31,-6.101,-4.791,3.705,1.74,-5.446,2.735,2.334,2.339,1.912,2.017,1.958,0.133,-3.155,-0.078
'0:00.432',-1.307,-6.1,-4.793,3.703,1.743,-5.446,2.735,2.333,2.339,1.913,2.018,1.958,0.133,-3.151,-0.08
'0:00.433',-1.305,-6.104,-4.798,3.704,1.746,-5.451,2.731,2.332,2.338,1.912,2.017,1.958,0.133,-3.155,-0.082
'0:00.434',-1.305,-6.104,-4.798,3.704,1.746,-5.451,2.732,2.333,2.337,1.913,2.016,1.958,0.133,-3.155,-0.08
'0:00.435',-1.302,-6.104,-4.801,3.703,1.75,-5.452,2.731,2.333,2.336,1.912,2.015,1.958,0.135,-3.16,-0.079
'0:00.436',-1.298,-6.106,-4.808,3.702,1.754,-5.457,2.726,2.328,2.334,1.91,2.015,1.959,0.137,-3.163,-0.075
'0:00.437',-1.297,-6.106,-4.808,3.7,1.755,-5.457,2.72,2.321,2.33,1.905,2.014,1.957,0.136,-3.16,-0.074
'0:00.438',-1.294,-6.104,-4.81,3.699,1.758,-5.457,2.72,2.321,2.329,1.905,2.012,1.956,0.134,-3.161,-0.071
'0:00.439',-1.292,-6.097,-4.804,3.694,1.756,-5.45,2.727,2.33,2.338,1.911,2.018,1.959,0.136,-3.155,-0.076
'0:00.440',-1.29,-6.088,-4.796,3.688,1.753,-5.441,2.729,2.337,2.345,1.917,2.021,1.962,0.138,-3.143,-0.083
'0:00.441',-1.29,-6.082,-4.793,3.686,1.751,-5.437,2.734,2.341,2.35,1.919,2.019,1.962,0.138,-3.139,-0.082
'0:00.442',-1.285,-6.077,-4.792,3.68,1.754,-5.434,2.74,2.346,2.356,1.923,2.022,1.961,0.141,-3.14,-0.084
'0:00.443',-1.282,-6.068,-4.786,3.675,1.752,-5.426,2.747,2.352,2.362,1.927,2.024,1.964,0.142,-3.134,-0.09
'0:00.444',-1.288,-6.057,-4.769,3.671,1.74,-5.412,2.756,2.36,2.37,1.933,2.027,1.966,0.141,-3.118,-0.1
'0:00.445',-1.286,-6.053,-4.766,3.668,1.74,-5.409,2.76,2.365,2.377,1.938,2.031,1.97,0.143,-3.112,-0.1
'0:00.446',-1.28,-6.05,-4.77,3.664,1.745,-5.41,2.758,2.361,2.373,1.936,2.03,1.971,0.146,-3.113,-0.096
'0:00.447',-1.278,-6.048,-4.769,3.663,1.745,-5.408,2.755,2.356,2.369,1.935,2.03,1.968,0.143,-3.111,-0.096
'0:00.448',-1.278,-6.045,-4.766,3.662,1.744,-5.405,2.753,2.352,2.369,1.937,2.031,1.968,0.142,-3.11,-0.096
'0:00.449',-1.278,-6.037,-4.758,3.657,1.74,-5.397,2.748,2.348,2.368,1.937,2.032,1.97,0.143,-3.102,-0.096
'0:00.450',-1.275,-6.035,-4.76,3.655,1.742,-5.398,2.743,2.341,2.364,1.935,2.03,1.968,0.142,-3.107,-0.096
'0:00.451',-1.278,-6.034,-4.756,3.655,1.739,-5.394,2.744,2.338,2.363,1.935,2.032,1.968,0.141,-3.103,-0.096
'0:00.452',-1.29,-6.03,-4.74,3.659,1.725,-5.385,2.752,2.343,2.368,1.938,2.037,1.968,0.139,-3.095,-0.098
'0:00.453',-1.296,-6.034,-4.736,3.664,1.72,-5.385,2.751,2.341,2.365,1.935,2.034,1.965,0.136,-3.099,-0.099
'0:00.454',-1.29,-6.03,-4.739,3.659,1.724,-5.385,2.748,2.335,2.362,1.932,2.032,1.962,0.134,-3.088,-0.096
'0:00.455',-1.286,-6.031,-4.745,3.658,1.729,-5.388,2.751,2.335,2.362,1.93,2.03,1.962,0.135,-3.089,-0.097
'0:00.456',-1.297,-6.033,-4.736,3.664,1.719,-5.384,2.763,2.349,2.37,1.936,2.034,1.964,0.136,-3.096,-0.101
'0:00.457',-1.304,-6.027,-4.723,3.665,1.71,-5.375,2.773,2.361,2.379,1.943,2.038,1.966,0.135,-3.086,-0.102
'0:00.458',-1.299,-6.027,-4.726,3.663,1.714,-5.377,2.777,2.366,2.38,1.946,2.04,1.967,0.139,-3.083,-0.108
'0:00.459',-1.292,-6.033,-4.74,3.663,1.724,-5.386,2.779,2.368,2.381,1.946,2.039,1.968,0.143,-3.094,-0.102
'0:00.460',-1.279,-6.032,-4.753,3.655,1.737,-5.393,2.776,2.367,2.381,1.945,2.039,1.969,0.149,-3.098,-0.103
'0:00.461',-1.27,-6.029,-4.758,3.648,1.744,-5.394,2.772,2.371,2.386,1.948,2.04,1.97,0.155,-3.099,-0.108
'0:00.462',-1.272,-6.036,-4.763,3.654,1.746,-5.399,2.777,2.379,2.392,1.951,2.039,1.97,0.158,-3.109,-0.104
'0:00.463',-1.271,-6.038,-4.768,3.654,1.748,-5.402,2.782,2.388,2.4,1.958,2.045,1.972,0.161,-3.114,-0.108
'0:00.464',-1.265,-6.036,-4.771,3.65,1.752,-5.403,2.779,2.388,2.403,1.962,2.046,1.972,0.165,-3.112,-0.113
'0:00.465',-1.268,-6.037,-4.768,3.652,1.75,-5.402,2.784,2.394,2.41,1.968,2.051,1.975,0.166,-3.106,-0.115
'0:00.466',-1.274,-6.043,-4.768,3.658,1.746,-5.405,2.784,2.397,2.415,1.974,2.056,1.978,0.168,-3.111,-0.112
'0:00.467',-1.266,-6.044,-4.777,3.655,1.755,-5.41,2.777,2.39,2.412,1.974,2.056,1.978,0.172,-3.123,-0.109
'0:00.468',-1.264,-6.036,-4.771,3.649,1.754,-5.404,2.772,2.388,2.413,1.976,2.058,1.979,0.173,-3.112,-0.108
'0:00.469',-1.266,-6.037,-4.771,3.651,1.752,-5.404,2.769,2.381,2.409,1.976,2.062,1.982,0.172,-3.113,-0.103
'0:00.470',-1.262,-6.027,-4.764,3.644,1.75,-5.395,2.768,2.379,2.409,1.976,2.066,1.988,0.174,-3.099,-0.097
'0:00.471',-1.254,-6.017,-4.761,3.635,1.754,-5.389,2.758,2.377,2.408,1.976,2.067,1.992,0.176,-3.092,-0.095
'0:00.472',-1.247,-6.013,-4.766,3.63,1.76,-5.389,2.745,2.368,2.4,1.97,2.067,1.995,0.181,-3.093,-0.092
'0:00.473',-1.24,-5.997,-4.756,3.619,1.758,-5.377,2.733,2.361,2.4,1.972,2.075,2.001,0.185,-3.062,-0.086
'0:00.474',-1.228,-5.991,-4.762,3.61,1.766,-5.376,2.728,2.361,2.404,1.978,2.081,2.007,0.192,-3.063,-0.086
'0:00.475',-1.22,-5.979,-4.758,3.599,1.768,-5.369,2.723,2.36,2.408,1.984,2.087,2.011,0.198,-3.065,-0.09
'0:00.476',-1.222,-5.968,-4.747,3.595,1.762,-5.357,2.724,2.365,2.415,1.992,2.093,2.017,0.2,-3.052,-0.09
'0:00.477',-1.218,-5.966,-4.748,3.592,1.765,-5.357,2.719,2.367,2.422,1.996,2.096,2.019,0.203,-3.05,-0.091
'0:00.478',-1.206,-5.962,-4.755,3.584,1.774,-5.358,2.707,2.359,2.422,1.999,2.103,2.023,0.21,-3.044,-0.091
'0:00.479',-1.208,-5.97,-4.761,3.589,1.776,-5.365,2.703,2.354,2.42,2,2.106,2.026,0.214,-3.053,-0.089
'0:00.480',-1.202,-5.975,-4.772,3.589,1.784,-5.373,2.693,2.349,2.415,1.996,2.106,2.027,0.218,-3.063,-0.086
'0:00.481',-1.201,-5.981,-4.779,3.591,1.788,-5.38,2.689,2.349,2.409,1.992,2.103,2.025,0.216,-3.07,-0.084
'0:00.482',-1.216,-5.992,-4.776,3.604,1.78,-5.384,2.686,2.344,2.401,1.982,2.094,2.021,0.209,-3.084,-0.08
'0:00.483',-1.214,-5.998,-4.785,3.606,1.785,-5.391,2.677,2.336,2.393,1.976,2.091,2.02,0.211,-3.094,-0.071
'0:00.484',-1.212,-6.002,-4.79,3.607,1.788,-5.395,2.67,2.33,2.386,1.972,2.088,2.02,0.211,-3.094,-0.066
'0:00.485',-1.208,-6,-4.793,3.603,1.792,-5.396,2.662,2.321,2.377,1.966,2.086,2.022,0.214,-3.099,-0.061
'0:00.486',-1.206,-5.994,-4.787,3.6,1.79,-5.391,2.665,2.324,2.377,1.963,2.087,2.023,0.216,-3.092,-0.064
'0:00.487',-1.212,-5.992,-4.78,3.602,1.784,-5.386,2.668,2.328,2.378,1.962,2.087,2.024,0.215,-3.088,-0.062
'0:00.488',-1.201,-6.001,-4.8,3.601,1.799,-5.4,2.663,2.32,2.367,1.952,2.081,2.023,0.217,-3.094,-0.055
'0:00.489',-1.2,-6.01,-4.809,3.604,1.804,-5.409,2.662,2.316,2.359,1.941,2.071,2.018,0.214,-3.1,-0.057
'0:00.490',-1.203,-6.008,-4.804,3.606,1.8,-5.405,2.663,2.317,2.36,1.938,2.066,2.017,0.212,-3.107,-0.051
'0:00.491',-1.204,-6.006,-4.802,3.605,1.799,-5.404,2.662,2.318,2.359,1.935,2.065,2.018,0.214,-3.104,-0.047
'0:00.492',-1.206,-6.006,-4.801,3.606,1.798,-5.404,2.66,2.316,2.357,1.935,2.065,2.015,0.215,-3.107,-0.051
'0:00.493',-1.206,-6.013,-4.806,3.609,1.8,-5.409,2.668,2.32,2.358,1.938,2.064,2.013,0.213,-3.114,-0.054
'0:00.494',-1.21,-6.022,-4.811,3.615,1.801,-5.417,2.676,2.323,2.364,1.942,2.067,2.015,0.217,-3.116,-0.057
'0:00.495',-1.208,-6.021,-4.813,3.615,1.802,-5.417,2.675,2.318,2.361,1.94,2.066,2.014,0.218,-3.116,-0.057
'0:00.496',-1.214,-6.028,-4.814,3.621,1.8,-5.42,2.679,2.323,2.361,1.94,2.063,2.01,0.213,-3.119,-0.062
'0:00.497',-1.222,-6.035,-4.812,3.629,1.794,-5.423,2.686,2.33,2.368,1.944,2.063,2.011,0.212,-3.126,-0.06
'0:00.498',-1.225,-6.027,-4.801,3.626,1.788,-5.414,2.688,2.329,2.369,1.946,2.066,2.013,0.211,-3.119,-0.061
'0:00.499',-1.232,-6.023,-4.79,3.628,1.778,-5.407,2.689,2.329,2.369,1.948,2.067,2.014,0.206,-3.103,-0.059
'0:00.500',-1.234,-6.031,-4.796,3.633,1.78,-5.413,2.691,2.325,2.363,1.94,2.061,2.01,0.202,-3.115,-0.053
'0:00.501',-1.233,-6.038,-4.804,3.636,1.786,-5.421,2.691,2.321,2.357,1.938,2.057,2.009,0.202,-3.128,-0.059
'0:00.502',-1.234,-6.037,-4.801,3.635,1.784,-5.419,2.688,2.319,2.354,1.937,2.058,2.009,0.201,-3.114,-0.055
'0:00.503',-1.234,-6.04,-4.806,3.636,1.786,-5.423,2.691,2.321,2.35,1.934,2.055,2.008,0.201,-3.119,-0.049
'0:00.504',-1.228,-6.043,-4.814,3.635,1.793,-5.428,2.692,2.323,2.348,1.933,2.051,2.007,0.203,-3.123,-0.044
'0:00.505',-1.228,-6.042,-4.814,3.635,1.793,-5.428,2.69,2.317,2.344,1.925,2.047,2.006,0.198,-3.119,-0.042
'0:00.506',-1.238,-6.046,-4.809,3.642,1.785,-5.427,2.692,2.313,2.341,1.923,2.047,2.006,0.194,-3.121,-0.043
'0:00.507',-1.244,-6.051,-4.808,3.647,1.782,-5.429,2.693,2.316,2.343,1.925,2.052,2.009,0.194,-3.121,-0.044
'0:00.508',-1.242,-6.057,-4.814,3.65,1.786,-5.436,2.693,2.315,2.342,1.925,2.054,2.01,0.196,-3.123,-0.043
'0:00.509',-1.238,-6.052,-4.814,3.644,1.788,-5.433,2.689,2.312,2.337,1.923,2.049,2.008,0.197,-3.127,-0.046
'0:00.510',-1.236,-6.056,-4.818,3.646,1.79,-5.436,2.687,2.311,2.334,1.918,2.045,2.006,0.197,-3.134,-0.044
'0:00.511',-1.24,-6.063,-4.822,3.651,1.791,-5.442,2.686,2.308,2.328,1.913,2.044,2.005,0.196,-3.139,-0.04
'0:00.512',-1.244,-6.064,-4.819,3.654,1.787,-5.441,2.685,2.308,2.328,1.91,2.043,2.003,0.194,-3.137,-0.04
'0:00.513',-1.253,-6.07,-4.816,3.661,1.782,-5.443,2.685,2.305,2.328,1.91,2.04,2.001,0.19,-3.136,-0.037
'0:00.514',-1.259,-6.077,-4.818,3.667,1.78,-5.447,2.686,2.305,2.326,1.907,2.036,1.996,0.184,-3.147,-0.04
'0:00.515',-1.262,-6.086,-4.824,3.674,1.781,-5.455,2.688,2.304,2.324,1.903,2.03,1.99,0.177,-3.152,-0.037
'0:00.516',-1.268,-6.094,-4.825,3.681,1.778,-5.46,2.692,2.303,2.317,1.897,2.022,1.983,0.172,-3.151,-0.036
'0:00.517',-1.282,-6.095,-4.814,3.688,1.766,-5.454,2.7,2.309,2.321,1.899,2.021,1.98,0.166,-3.147,-0.043
'0:00.518',-1.286,-6.093,-4.808,3.689,1.76,-5.45,2.702,2.308,2.323,1.901,2.022,1.979,0.163,-3.147,-0.044
'0:00.519',-1.286,-6.095,-4.809,3.691,1.76,-5.452,2.699,2.3,2.317,1.894,2.018,1.974,0.159,-3.152,-0.041
'0:00.520',-1.294,-6.098,-4.803,3.695,1.755,-5.45,2.698,2.296,2.314,1.889,2.013,1.972,0.154,-3.151,-0.032
'0:00.521',-1.296,-6.101,-4.804,3.699,1.754,-5.453,2.695,2.291,2.307,1.881,2.002,1.963,0.147,-3.154,-0.033
'0:00.522',-1.302,-6.106,-4.803,3.703,1.751,-5.454,2.696,2.292,2.303,1.877,1.996,1.956,0.141,-3.156,-0.037
'0:00.523',-1.304,-6.111,-4.806,3.707,1.75,-5.458,2.698,2.292,2.304,1.875,1.992,1.952,0.138,-3.16,-0.036
'0:00.524',-1.3,-6.111,-4.811,3.704,1.756,-5.46,2.693,2.291,2.301,1.869,1.986,1.948,0.134,-3.163,-0.04
'0:00.525',-1.303,-6.114,-4.811,3.708,1.754,-5.463,2.699,2.297,2.305,1.871,1.984,1.944,0.132,-3.168,-0.043
'0:00.526',-1.312,-6.119,-4.807,3.715,1.748,-5.463,2.702,2.297,2.305,1.871,1.982,1.941,0.13,-3.178,-0.044
'0:00.527',-1.313,-6.115,-4.802,3.714,1.744,-5.458,2.701,2.298,2.305,1.873,1.982,1.94,0.129,-3.172,-0.047
'0:00.528',-1.311,-6.118,-4.806,3.714,1.748,-5.462,2.702,2.298,2.307,1.877,1.986,1.942,0.13,-3.171,-0.047
'0:00.529',-1.315,-6.125,-4.809,3.72,1.746,-5.466,2.701,2.297,2.305,1.876,1.984,1.941,0.13,-3.175,-0.043
'0:00.530',-1.313,-6.125,-4.811,3.719,1.748,-5.468,2.7,2.295,2.304,1.874,1.982,1.938,0.129,-3.171,-0.047
'0:00.531',-1.31,-6.127,-4.816,3.717,1.753,-5.471,2.699,2.291,2.3,1.871,1.982,1.938,0.127,-3.175,-0.05
'0:00.532',-1.313,-6.129,-4.816,3.721,1.75,-5.472,2.7,2.292,2.3,1.869,1.982,1.937,0.126,-3.176,-0.042
'0:00.533',-1.31,-6.127,-4.817,3.718,1.754,-5.472,2.697,2.292,2.298,1.867,1.982,1.938,0.127,-3.175,-0.043
'0:00.534',-1.311,-6.128,-4.817,3.719,1.753,-5.473,2.696,2.291,2.296,1.865,1.98,1.936,0.127,-3.178,-0.047
'0:00.535',-1.319,-6.132,-4.812,3.725,1.746,-5.472,2.7,2.294,2.299,1.87,1.984,1.938,0.126,-3.182,-0.048
'0:00.536',-1.321,-6.133,-4.812,3.727,1.746,-5.473,2.7,2.297,2.3,1.873,1.985,1.94,0.126,-3.183,-0.046
'0:00.537',-1.321,-6.135,-4.812,3.728,1.746,-5.473,2.7,2.296,2.299,1.87,1.98,1.938,0.124,-3.186,-0.049
'0:00.538',-1.32,-6.137,-4.816,3.728,1.748,-5.476,2.699,2.292,2.295,1.868,1.981,1.939,0.124,-3.192,-0.049
'0:00.539',-1.319,-6.138,-4.819,3.728,1.75,-5.479,2.698,2.292,2.296,1.866,1.982,1.94,0.125,-3.191,-0.046
'0:00.540',-1.319,-6.14,-4.82,3.729,1.75,-5.479,2.699,2.292,2.299,1.867,1.982,1.942,0.124,-3.187,-0.049
'0:00.541',-1.319,-6.141,-4.822,3.73,1.75,-5.481,2.7,2.289,2.296,1.867,1.982,1.942,0.121,-3.184,-0.051
'0:00.542',-1.325,-6.142,-4.816,3.733,1.744,-5.479,2.701,2.291,2.295,1.865,1.98,1.94,0.119,-3.18,-0.052
'0:00.543',-1.325,-6.136,-4.809,3.73,1.742,-5.473,2.698,2.292,2.296,1.865,1.979,1.938,0.118,-3.178,-0.057
'0:00.544',-1.322,-6.129,-4.806,3.725,1.742,-5.468,2.701,2.296,2.301,1.871,1.981,1.939,0.121,-3.179,-0.054
'0:00.545',-1.329,-6.133,-4.803,3.73,1.738,-5.468,2.704,2.3,2.303,1.875,1.982,1.938,0.119,-3.168,-0.045
'0:00.546',-1.327,-6.137,-4.81,3.732,1.742,-5.473,2.704,2.3,2.3,1.873,1.98,1.935,0.116,-3.172,-0.051
'0:00.547',-1.317,-6.133,-4.816,3.724,1.75,-5.474,2.7,2.297,2.296,1.869,1.978,1.934,0.117,-3.178,-0.052
'0:00.548',-1.317,-6.132,-4.814,3.724,1.748,-5.473,2.699,2.295,2.292,1.867,1.976,1.931,0.116,-3.176,-0.05
'0:00.549',-1.323,-6.136,-4.813,3.728,1.745,-5.474,2.704,2.296,2.29,1.867,1.976,1.929,0.114,-3.174,-0.049
'0:00.550',-1.325,-6.137,-4.811,3.731,1.743,-5.474,2.7,2.295,2.285,1.863,1.973,1.927,0.114,-3.173,-0.049
'0:00.551',-1.325,-6.141,-4.816,3.732,1.745,-5.478,2.699,2.295,2.285,1.863,1.973,1.927,0.115,-3.188,-0.052
'0:00.552',-1.32,-6.138,-4.817,3.728,1.748,-5.478,2.7,2.296,2.287,1.867,1.974,1.928,0.116,-3.193,-0.054
'0:00.553',-1.318,-6.132,-4.814,3.724,1.748,-5.473,2.7,2.296,2.289,1.867,1.974,1.929,0.116,-3.189,-0.056
'0:00.554',-1.323,-6.136,-4.811,3.729,1.744,-5.473,2.705,2.302,2.293,1.871,1.977,1.931,0.114,-3.188,-0.053
'0:00.555',-1.333,-6.142,-4.809,3.736,1.738,-5.476,2.707,2.303,2.295,1.873,1.976,1.929,0.113,-3.186,-0.051
'0:00.556',-1.331,-6.141,-4.81,3.736,1.74,-5.475,2.705,2.3,2.294,1.871,1.978,1.931,0.114,-3.183,-0.049
'0:00.557',-1.329,-6.138,-4.808,3.732,1.74,-5.473,2.701,2.296,2.289,1.869,1.974,1.929,0.114,-3.183,-0.05
'0:00.558',-1.331,-6.137,-4.806,3.733,1.738,-5.471,2.704,2.296,2.291,1.869,1.973,1.929,0.112,-3.176,-0.051
'0:00.559',-1.33,-6.138,-4.808,3.734,1.738,-5.473,2.707,2.3,2.293,1.871,1.976,1.931,0.112,-3.177,-0.051
'0:00.560',-1.33,-6.144,-4.813,3.736,1.741,-5.478,2.708,2.302,2.295,1.868,1.971,1.929,0.113,-3.192,-0.056
'0:00.561',-1.327,-6.142,-4.815,3.734,1.744,-5.479,2.708,2.303,2.296,1.867,1.974,1.932,0.115,-3.187,-0.053
'0:00.562',-1.328,-6.145,-4.816,3.736,1.744,-5.481,2.71,2.304,2.296,1.865,1.972,1.931,0.114,-3.188,-0.051
'0:00.563',-1.329,-6.152,-4.822,3.74,1.746,-5.487,2.709,2.3,2.291,1.861,1.966,1.927,0.111,-3.2,-0.051
'0:00.564',-1.333,-6.143,-4.81,3.737,1.738,-5.476,2.71,2.301,2.296,1.865,1.97,1.927,0.11,-3.185,-0.051
'0:00.565',-1.333,-6.139,-4.806,3.736,1.737,-5.473,2.708,2.3,2.297,1.867,1.971,1.927,0.108,-3.178,-0.051
'0:00.566',-1.325,-6.143,-4.817,3.733,1.746,-5.479,2.703,2.292,2.289,1.863,1.968,1.926,0.11,-3.188,-0.052
'0:00.567',-1.326,-6.138,-4.812,3.732,1.743,-5.475,2.705,2.296,2.292,1.865,1.967,1.923,0.11,-3.183,-0.053
'0:00.568',-1.331,-6.139,-4.808,3.735,1.738,-5.473,2.709,2.3,2.292,1.867,1.968,1.923,0.107,-3.183,-0.052
'0:00.569',-1.341,-6.138,-4.797,3.739,1.728,-5.468,2.71,2.3,2.292,1.867,1.97,1.923,0.106,-3.183,-0.058
'0:00.570',-1.339,-6.138,-4.798,3.739,1.729,-5.468,2.707,2.296,2.289,1.863,1.965,1.921,0.105,-3.185,-0.057
'0:00.571',-1.334,-6.143,-4.808,3.738,1.736,-5.474,2.708,2.297,2.289,1.861,1.964,1.92,0.107,-3.193,-0.051
'0:00.572',-1.334,-6.138,-4.803,3.736,1.734,-5.47,2.712,2.303,2.293,1.864,1.966,1.921,0.105,-3.18,-0.053
'0:00.573',-1.327,-6.134,-4.806,3.729,1.74,-5.47,2.709,2.3,2.292,1.865,1.967,1.921,0.108,-3.179,-0.051
'0:00.574',-1.327,-6.136,-4.809,3.732,1.74,-5.473,2.708,2.3,2.293,1.865,1.967,1.919,0.109,-3.191,-0.051
'0:00.575',-1.332,-6.136,-4.804,3.734,1.736,-5.47,2.709,2.301,2.292,1.865,1.966,1.919,0.105,-3.182,-0.06
'0:00.576',-1.333,-6.137,-4.803,3.735,1.735,-5.47,2.708,2.3,2.292,1.865,1.967,1.919,0.107,-3.18,-0.059
'0:00.577',-1.338,-6.136,-4.798,3.736,1.73,-5.466,2.709,2.302,2.292,1.866,1.966,1.917,0.105,-3.183,-0.06
'0:00.578',-1.341,-6.133,-4.792,3.736,1.726,-5.462,2.708,2.301,2.292,1.865,1.964,1.913,0.101,-3.177,-0.058
'0:00.579',-1.336,-6.133,-4.796,3.734,1.73,-5.464,2.707,2.3,2.292,1.867,1.97,1.919,0.106,-3.174,-0.058
'0:00.580',-1.331,-6.13,-4.798,3.73,1.733,-5.463,2.709,2.301,2.292,1.867,1.97,1.922,0.108,-3.178,-0.069
'0:00.581',-1.337,-6.141,-4.803,3.738,1.733,-5.472,2.709,2.3,2.285,1.863,1.964,1.917,0.105,-3.186,-0.061
'0:00.582',-1.345,-6.151,-4.806,3.748,1.73,-5.478,2.711,2.3,2.285,1.862,1.964,1.919,0.103,-3.186,-0.056
'0:00.583',-1.347,-6.147,-4.801,3.747,1.726,-5.473,2.716,2.306,2.292,1.865,1.968,1.923,0.104,-3.178,-0.059
'0:00.584',-1.337,-6.144,-4.806,3.74,1.735,-5.475,2.716,2.305,2.292,1.867,1.972,1.927,0.109,-3.181,-0.056
'0:00.585',-1.325,-6.132,-4.806,3.728,1.74,-5.469,2.708,2.299,2.289,1.865,1.97,1.926,0.109,-3.186,-0.058
'0:00.586',-1.331,-6.133,-4.801,3.732,1.734,-5.466,2.709,2.299,2.287,1.865,1.968,1.923,0.107,-3.183,-0.055
'0:00.587',-1.347,-6.139,-4.792,3.743,1.722,-5.465,2.716,2.306,2.292,1.869,1.972,1.927,0.108,-3.178,-0.053
'0:00.588',-1.35,-6.143,-4.793,3.746,1.721,-5.468,2.717,2.311,2.295,1.871,1.974,1.926,0.108,-3.182,-0.056
'0:00.589',-1.339,-6.143,-4.803,3.74,1.732,-5.473,2.716,2.304,2.292,1.867,1.972,1.925,0.109,-3.188,-0.055
'0:00.590',-1.334,-6.136,-4.801,3.735,1.733,-5.468,2.716,2.303,2.292,1.869,1.97,1.923,0.108,-3.184,-0.059
'0:00.591',-1.337,-6.137,-4.8,3.736,1.731,-5.468,2.721,2.309,2.297,1.872,1.97,1.919,0.108,-3.188,-0.062
'0:00.592',-1.337,-6.138,-4.8,3.737,1.731,-5.469,2.727,2.317,2.304,1.875,1.968,1.914,0.106,-3.193,-0.071
'0:00.593',-1.341,-6.136,-4.795,3.739,1.726,-5.465,2.74,2.334,2.322,1.886,1.964,1.906,0.1,-3.183,-0.085
'0:00.594',-1.353,-6.138,-4.784,3.745,1.716,-5.46,2.761,2.364,2.352,1.903,1.96,1.899,0.089,-3.179,-0.099
'0:00.595',-1.369,-6.139,-4.77,3.753,1.7,-5.454,2.788,2.394,2.377,1.921,1.954,1.887,0.075,-3.174,-0.119
'0:00.596',-1.385,-6.149,-4.763,3.767,1.689,-5.456,2.825,2.436,2.41,1.936,1.939,1.867,0.058,-3.179,-0.141
'0:00.597',-1.411,-6.161,-4.75,3.785,1.669,-5.455,2.876,2.496,2.457,1.957,1.918,1.842,0.033,-3.183,-0.172
'0:00.598',-1.438,-6.164,-4.726,3.8,1.643,-5.444,2.929,2.561,2.506,1.98,1.9,1.817,0.007,-3.178,-0.206
'0:00.599',-1.456,-6.168,-4.712,3.812,1.627,-5.44,2.97,2.611,2.545,1.994,1.877,1.79,-0.018,-3.178,-0.234
'0:00.600',-1.473,-6.176,-4.702,3.824,1.614,-5.439,3.005,2.647,2.572,2.002,1.853,1.761,-0.042,-3.176,-0.263
'0:00.601',-1.48,-6.176,-4.696,3.828,1.608,-5.436,3.031,2.677,2.597,2.014,1.841,1.744,-0.058,-3.174,-0.283
'0:00.602',-1.478,-6.168,-4.688,3.823,1.604,-5.428,3.056,2.707,2.623,2.029,1.839,1.732,-0.068,-3.17,-0.307
'0:00.603',-1.482,-6.154,-4.67,3.818,1.593,-5.412,3.075,2.729,2.647,2.045,1.841,1.725,-0.076,-3.158,-0.333
'0:00.604',-1.494,-6.141,-4.646,3.818,1.575,-5.394,3.095,2.756,2.68,2.071,1.851,1.722,-0.081,-3.136,-0.354
'0:00.605',-1.502,-6.129,-4.627,3.815,1.562,-5.378,3.123,2.789,2.721,2.106,1.862,1.718,-0.083,-3.129,-0.394
'0:00.606',-1.496,-6.114,-4.617,3.804,1.56,-5.364,3.143,2.816,2.761,2.144,1.883,1.72,-0.076,-3.124,-0.427
'0:00.607',-1.496,-6.083,-4.587,3.789,1.546,-5.335,3.16,2.844,2.806,2.185,1.911,1.728,-0.068,-3.089,-0.458
'0:00.608',-1.489,-6.067,-4.577,3.777,1.544,-5.322,3.183,2.889,2.861,2.234,1.935,1.734,-0.054,-3.078,-0.493
'0:00.609',-1.479,-6.057,-4.577,3.768,1.549,-5.316,3.203,2.938,2.924,2.291,1.964,1.744,-0.034,-3.077,-0.524
'0:00.610',-1.455,-6.041,-4.585,3.748,1.565,-5.313,3.2,2.954,2.955,2.325,1.994,1.758,-0.009,-3.071,-0.543
'0:00.611',-1.411,-6.038,-4.626,3.724,1.607,-5.332,3.175,2.941,2.951,2.339,2.03,1.786,0.029,-3.079,-0.534
'0:00.612',-1.375,-6.035,-4.66,3.704,1.642,-5.347,3.153,2.933,2.957,2.361,2.074,1.825,0.074,-3.087,-0.524
'0:00.613',-1.323,-6.035,-4.712,3.678,1.694,-5.373,3.124,2.929,2.969,2.392,2.124,1.869,0.132,-3.111,-0.519
'0:00.614',-1.259,-6.023,-4.763,3.64,1.752,-5.393,3.086,2.917,2.977,2.422,2.184,1.921,0.198,-3.119,-0.507
'0:00.615',-1.186,-6.015,-4.829,3.6,1.821,-5.421,3.033,2.894,2.98,2.455,2.255,1.986,0.274,-3.128,-0.484
'0:00.616',-1.113,-6.005,-4.891,3.559,1.889,-5.448,2.969,2.857,2.975,2.491,2.334,2.06,0.359,-3.136,-0.455
'0:00.617',-1.05,-6.002,-4.951,3.526,1.95,-5.476,2.924,2.837,2.983,2.534,2.405,2.127,0.437,-3.149,-0.435
'0:00.618',-0.985,-5.99,-5.005,3.487,2.01,-5.497,2.871,2.799,2.971,2.562,2.478,2.192,0.51,-3.159,-0.41
'0:00.619',-0.918,-5.959,-5.04,3.438,2.061,-5.5,2.796,2.73,2.947,2.591,2.569,2.274,0.597,-3.145,-0.382
'0:00.620',-0.848,-5.94,-5.091,3.394,2.122,-5.516,2.741,2.696,2.958,2.654,2.662,2.353,0.68,-3.143,-0.364
'0:00.621',-0.799,-5.921,-5.122,3.36,2.162,-5.521,2.704,2.671,2.971,2.711,2.747,2.423,0.75,-3.133,-0.352
'0:00.622',-0.748,-5.891,-5.144,3.319,2.198,-5.517,2.624,2.572,2.913,2.724,2.833,2.498,0.825,-3.119,-0.324
'0:00.623',-0.689,-5.84,-5.151,3.264,2.231,-5.495,2.551,2.467,2.854,2.744,2.923,2.57,0.892,-3.088,-0.304
'0:00.624',-0.647,-5.787,-5.139,3.217,2.245,-5.463,2.475,2.368,2.796,2.763,3.026,2.651,0.965,-3.054,-0.275
'0:00.625',-0.608,-5.747,-5.139,3.177,2.265,-5.442,2.369,2.223,2.682,2.74,3.121,2.736,1.04,-3.036,-0.217
'0:00.626',-0.578,-5.728,-5.149,3.152,2.285,-5.438,2.294,2.115,2.598,2.74,3.211,2.811,1.103,-3.026,-0.181
'0:00.627',-0.547,-5.718,-5.17,3.132,2.311,-5.443,2.22,2.002,2.497,2.723,3.293,2.887,1.168,-3.019,-0.135
'0:00.628',-0.509,-5.73,-5.219,3.119,2.354,-5.474,2.159,1.889,2.394,2.7,3.361,2.963,1.229,-3.027,-0.076
'0:00.629',-0.487,-5.737,-5.249,3.112,2.381,-5.492,2.104,1.798,2.312,2.692,3.439,3.046,1.292,-3.034,-0.019
'0:00.630',-0.473,-5.75,-5.275,3.111,2.401,-5.512,2.042,1.698,2.2,2.636,3.477,3.104,1.332,-3.053,0.047
'0:00.631',-0.478,-5.782,-5.302,3.13,2.412,-5.541,2.006,1.626,2.102,2.572,3.474,3.142,1.348,-3.071,0.117
'0:00.632',-0.485,-5.804,-5.319,3.144,2.417,-5.561,1.962,1.553,1.998,2.493,3.438,3.162,1.351,-3.087,0.193
'0:00.633',-0.506,-5.819,-5.312,3.163,2.403,-5.566,1.905,1.455,1.874,2.392,3.373,3.159,1.327,-3.094,0.27
'0:00.634',-0.551,-5.815,-5.263,3.183,2.356,-5.538,1.887,1.409,1.8,2.329,3.334,3.155,1.298,-3.062,0.312
'0:00.635',-0.607,-5.814,-5.205,3.21,2.299,-5.508,1.902,1.397,1.738,2.248,3.273,3.126,1.246,-3.042,0.329
'0:00.636',-0.681,-5.809,-5.127,3.245,2.223,-5.468,1.923,1.373,1.663,2.152,3.207,3.086,1.182,-3.021,0.344
'0:00.637',-0.752,-5.809,-5.056,3.28,2.151,-5.432,1.946,1.351,1.559,1.998,3.115,3.039,1.107,-3.001,0.38
'0:00.638',-0.831,-5.822,-4.99,3.326,2.079,-5.405,1.967,1.312,1.427,1.804,2.994,2.977,1.01,-2.99,0.434
'0:00.639',-0.906,-5.843,-4.934,3.374,2.014,-5.388,1.98,1.303,1.343,1.655,2.868,2.901,0.912,-2.993,0.48
'0:00.640',-0.98,-5.883,-4.902,3.431,1.961,-5.393,1.998,1.304,1.234,1.433,2.672,2.801,0.789,-3.01,0.556
'0:00.641',-1.067,-5.934,-4.866,3.5,1.899,-5.399,2.039,1.308,1.114,1.19,2.464,2.692,0.654,-3.026,0.628
'0:00.642',-1.151,-5.979,-4.827,3.564,1.838,-5.402,2.094,1.339,1.029,0.986,2.271,2.579,0.522,-3.04,0.673
'0:00.643',-1.242,-6.045,-4.803,3.643,1.78,-5.424,2.169,1.387,0.977,0.826,2.064,2.445,0.378,-3.079,0.715
'0:00.644',-1.331,-6.117,-4.785,3.724,1.727,-5.451,2.236,1.431,0.953,0.724,1.863,2.295,0.232,-3.124,0.74
'0:00.645',-1.389,-6.173,-4.782,3.78,1.696,-5.477,2.301,1.504,0.976,0.677,1.718,2.184,0.129,-3.147,0.742
'0:00.646',-1.433,-6.225,-4.791,3.829,1.679,-5.508,2.354,1.561,0.998,0.643,1.599,2.094,0.045,-3.179,0.743
'0:00.647',-1.454,-6.261,-4.806,3.857,1.675,-5.532,2.372,1.573,1,0.615,1.513,2.035,-0.011,-3.204,0.757
'0:00.648',-1.452,-6.296,-4.843,3.874,1.695,-5.569,2.397,1.626,1.044,0.64,1.48,2.007,-0.027,-3.231,0.757
'0:00.649',-1.448,-6.322,-4.872,3.885,1.712,-5.597,2.409,1.677,1.092,0.674,1.461,1.982,-0.04,-3.254,0.746
'0:00.650',-1.442,-6.329,-4.886,3.885,1.721,-5.607,2.422,1.73,1.145,0.718,1.466,1.972,-0.041,-3.261,0.721
'0:00.651',-1.44,-6.325,-4.884,3.882,1.722,-5.604,2.436,1.784,1.204,0.777,1.477,1.954,-0.045,-3.265,0.683
'0:00.652',-1.45,-6.303,-4.853,3.876,1.701,-5.577,2.428,1.8,1.246,0.831,1.494,1.935,-0.058,-3.237,0.645
'0:00.653',-1.462,-6.295,-4.832,3.878,1.685,-5.564,2.433,1.813,1.276,0.865,1.497,1.913,-0.074,-3.228,0.611
'0:00.654',-1.465,-6.298,-4.832,3.881,1.683,-5.565,2.448,1.839,1.307,0.893,1.5,1.893,-0.084,-3.232,0.585
'0:00.655',-1.476,-6.291,-4.814,3.883,1.668,-5.552,2.457,1.85,1.335,0.925,1.51,1.881,-0.096,-3.23,0.554
'0:00.656',-1.492,-6.29,-4.797,3.892,1.651,-5.543,2.466,1.852,1.361,0.957,1.517,1.863,-0.11,-3.24,0.518
'0:00.657',-1.504,-6.295,-4.79,3.899,1.643,-5.543,2.483,1.881,1.399,0.995,1.532,1.851,-0.115,-3.246,0.48
'0:00.658',-1.5,-6.295,-4.795,3.897,1.647,-5.544,2.506,1.915,1.449,1.044,1.552,1.841,-0.116,-3.256,0.44
'0:00.659',-1.506,-6.299,-4.793,3.902,1.643,-5.546,2.542,1.956,1.504,1.097,1.574,1.833,-0.118,-3.262,0.401
'0:00.660',-1.514,-6.314,-4.8,3.914,1.643,-5.557,2.594,2.018,1.569,1.155,1.591,1.819,-0.119,-3.272,0.354
'0:00.661',-1.507,-6.32,-4.812,3.913,1.653,-5.566,2.657,2.103,1.657,1.228,1.613,1.806,-0.117,-3.277,0.296
'0:00.662',-1.508,-6.327,-4.818,3.917,1.655,-5.572,2.711,2.175,1.744,1.306,1.641,1.802,-0.11,-3.287,0.241
'0:00.663',-1.491,-6.321,-4.829,3.905,1.669,-5.574,2.735,2.227,1.824,1.379,1.673,1.802,-0.089,-3.297,0.186
'0:00.664',-1.476,-6.298,-4.821,3.886,1.671,-5.559,2.751,2.267,1.897,1.45,1.712,1.81,-0.069,-3.279,0.141
'0:00.665',-1.471,-6.287,-4.816,3.879,1.671,-5.551,2.764,2.281,1.957,1.51,1.746,1.818,-0.05,-3.275,0.103
'0:00.666',-1.448,-6.272,-4.823,3.86,1.687,-5.548,2.757,2.271,1.992,1.55,1.77,1.831,-0.027,-3.271,0.083
'0:00.667',-1.429,-6.258,-4.827,3.844,1.698,-5.543,2.752,2.26,2.014,1.579,1.79,1.845,-0.006,-3.262,0.078
'0:00.668',-1.415,-6.256,-4.84,3.836,1.712,-5.548,2.756,2.269,2.05,1.618,1.813,1.857,0.017,-3.269,0.066
'0:00.669',-1.404,-6.253,-4.848,3.829,1.722,-5.551,2.759,2.28,2.079,1.649,1.829,1.867,0.038,-3.275,0.057
'0:00.670',-1.395,-6.248,-4.852,3.821,1.728,-5.55,2.756,2.277,2.103,1.671,1.843,1.875,0.057,-3.273,0.05
'0:00.671',-1.369,-6.242,-4.872,3.804,1.752,-5.556,2.738,2.264,2.118,1.687,1.853,1.879,0.07,-3.268,0.044
'0:00.672',-1.358,-6.232,-4.874,3.795,1.758,-5.553,2.732,2.271,2.139,1.707,1.867,1.886,0.077,-3.262,0.036
'0:00.673',-1.37,-6.219,-4.848,3.794,1.739,-5.534,2.732,2.284,2.167,1.734,1.883,1.895,0.085,-3.248,0.021
'0:00.674',-1.361,-6.204,-4.841,3.782,1.74,-5.522,2.729,2.288,2.181,1.75,1.893,1.898,0.087,-3.237,0.007
'0:00.675',-1.355,-6.191,-4.835,3.772,1.74,-5.513,2.728,2.293,2.196,1.763,1.899,1.901,0.088,-3.228,0.001
'0:00.676',-1.357,-6.181,-4.823,3.768,1.732,-5.502,2.72,2.284,2.204,1.772,1.905,1.902,0.089,-3.221,-0.002
'0:00.677',-1.357,-6.171,-4.814,3.764,1.729,-5.493,2.716,2.284,2.211,1.78,1.908,1.901,0.09,-3.208,-0.008
'0:00.678',-1.355,-6.165,-4.809,3.76,1.726,-5.487,2.724,2.293,2.223,1.792,1.914,1.902,0.09,-3.194,-0.017
'0:00.679',-1.357,-6.154,-4.796,3.756,1.719,-5.475,2.731,2.305,2.237,1.806,1.921,1.905,0.09,-3.18,-0.025
'0:00.680',-1.356,-6.154,-4.796,3.755,1.72,-5.475,2.731,2.311,2.245,1.813,1.924,1.907,0.093,-3.186,-0.028
'0:00.681',-1.348,-6.157,-4.809,3.752,1.73,-5.482,2.729,2.309,2.248,1.816,1.927,1.904,0.095,-3.198,-0.035
'0:00.682',-1.347,-6.154,-4.806,3.75,1.729,-5.479,2.727,2.312,2.256,1.821,1.931,1.905,0.095,-3.198,-0.043
'0:00.683',-1.349,-6.149,-4.799,3.748,1.724,-5.473,2.728,2.316,2.268,1.833,1.936,1.907,0.099,-3.191,-0.05
'0:00.684',-1.349,-6.138,-4.788,3.743,1.719,-5.463,2.731,2.324,2.28,1.844,1.946,1.911,0.102,-3.171,-0.054
'0:00.685',-1.347,-6.131,-4.785,3.739,1.718,-5.458,2.731,2.324,2.284,1.851,1.953,1.914,0.104,-3.174,-0.055
'0:00.686',-1.344,-6.123,-4.779,3.733,1.717,-5.45,2.735,2.329,2.292,1.857,1.958,1.916,0.104,-3.159,-0.062
'0:00.687',-1.341,-6.117,-4.776,3.728,1.718,-5.447,2.737,2.337,2.303,1.864,1.962,1.918,0.106,-3.144,-0.067
'0:00.688',-1.34,-6.12,-4.779,3.729,1.72,-5.449,2.738,2.336,2.306,1.867,1.962,1.915,0.11,-3.156,-0.069
'0:00.689',-1.34,-6.121,-4.78,3.73,1.72,-5.45,2.74,2.341,2.312,1.872,1.964,1.913,0.108,-3.157,-0.073
'0:00.690',-1.335,-6.116,-4.781,3.724,1.723,-5.448,2.744,2.345,2.32,1.879,1.968,1.915,0.109,-3.155,-0.076
'0:00.691',-1.329,-6.11,-4.781,3.719,1.726,-5.446,2.748,2.35,2.328,1.885,1.97,1.915,0.11,-3.151,-0.077
'0:00.692',-1.327,-6.111,-4.783,3.719,1.728,-5.447,2.747,2.353,2.333,1.889,1.97,1.914,0.11,-3.151,-0.078
'0:00.693',-1.318,-6.105,-4.787,3.711,1.734,-5.446,2.743,2.352,2.334,1.89,1.968,1.913,0.113,-3.153,-0.08
'0:00.694',-1.317,-6.106,-4.789,3.712,1.736,-5.447,2.744,2.354,2.34,1.895,1.97,1.913,0.112,-3.147,-0.082
'0:00.695',-1.327,-6.109,-4.782,3.717,1.728,-5.445,2.751,2.36,2.348,1.903,1.972,1.914,0.111,-3.143,-0.086
'0:00.696',-1.324,-6.101,-4.776,3.712,1.726,-5.438,2.748,2.359,2.349,1.903,1.971,1.913,0.112,-3.155,-0.09
'0:00.697',-1.333,-6.103,-4.769,3.717,1.718,-5.436,2.748,2.357,2.349,1.903,1.97,1.911,0.106,-3.154,-0.093
'0:00.698',-1.335,-6.107,-4.772,3.72,1.718,-5.439,2.752,2.356,2.352,1.905,1.972,1.911,0.103,-3.158,-0.095
'0:00.699',-1.331,-6.105,-4.774,3.717,1.721,-5.439,2.755,2.359,2.356,1.908,1.978,1.915,0.105,-3.155,-0.102
'0:00.700',-1.336,-6.107,-4.771,3.721,1.717,-5.439,2.756,2.36,2.359,1.909,1.976,1.915,0.104,-3.144,-0.098
'0:00.701',-1.329,-6.109,-4.78,3.719,1.726,-5.444,2.749,2.352,2.353,1.905,1.971,1.911,0.107,-3.155,-0.093
'0:00.702',-1.32,-6.101,-4.78,3.71,1.73,-5.44,2.744,2.349,2.35,1.903,1.97,1.909,0.11,-3.152,-0.097
'0:00.703',-1.321,-6.088,-4.766,3.704,1.722,-5.426,2.746,2.353,2.352,1.905,1.97,1.907,0.108,-3.138,-0.096
'0:00.704',-1.327,-6.09,-4.763,3.708,1.718,-5.426,2.749,2.357,2.356,1.91,1.974,1.909,0.108,-3.141,-0.099
'0:00.705',-1.331,-6.101,-4.77,3.715,1.72,-5.436,2.751,2.361,2.361,1.915,1.978,1.909,0.11,-3.152,-0.097
'0:00.706',-1.332,-6.105,-4.773,3.718,1.72,-5.439,2.75,2.361,2.362,1.919,1.978,1.909,0.109,-3.154,-0.097
'0:00.707',-1.331,-6.102,-4.771,3.716,1.72,-5.436,2.752,2.362,2.365,1.925,1.981,1.913,0.108,-3.144,-0.1
'0:00.708',-1.33,-6.1,-4.769,3.715,1.72,-5.434,2.754,2.365,2.37,1.931,1.986,1.917,0.111,-3.14,-0.102
'0:00.709',-1.332,-6.096,-4.763,3.713,1.716,-5.429,2.756,2.365,2.373,1.933,1.99,1.919,0.113,-3.135,-0.106
'0:00.710',-1.328,-6.096,-4.768,3.712,1.72,-5.432,2.756,2.364,2.37,1.933,1.988,1.917,0.113,-3.137,-0.103
'0:00.711',-1.333,-6.099,-4.767,3.716,1.717,-5.433,2.76,2.366,2.372,1.937,1.99,1.919,0.114,-3.14,-0.104
'0:00.712',-1.328,-6.096,-4.767,3.711,1.72,-5.431,2.76,2.369,2.37,1.938,1.99,1.921,0.115,-3.142,-0.104
'0:00.713',-1.317,-6.093,-4.776,3.705,1.728,-5.434,2.75,2.362,2.362,1.931,1.982,1.916,0.117,-3.145,-0.101
'0:00.714',-1.32,-6.088,-4.768,3.704,1.724,-5.428,2.748,2.364,2.362,1.928,1.981,1.915,0.117,-3.134,-0.101
'0:00.715',-1.323,-6.095,-4.772,3.708,1.724,-5.434,2.752,2.366,2.361,1.927,1.98,1.913,0.116,-3.141,-0.105
'0:00.716',-1.331,-6.099,-4.768,3.715,1.718,-5.433,2.753,2.368,2.363,1.927,1.978,1.911,0.114,-3.146,-0.107
'0:00.717',-1.325,-6.095,-4.769,3.709,1.722,-5.431,2.751,2.365,2.364,1.929,1.982,1.914,0.116,-3.142,-0.106
'0:00.718',-1.321,-6.093,-4.772,3.707,1.726,-5.433,2.748,2.366,2.368,1.933,1.988,1.917,0.119,-3.142,-0.104
'0:00.719',-1.325,-6.087,-4.762,3.705,1.718,-5.424,2.749,2.37,2.373,1.938,1.989,1.917,0.119,-3.135,-0.102
'0:00.720',-1.321,-6.088,-4.766,3.704,1.722,-5.426,2.751,2.373,2.375,1.94,1.988,1.917,0.12,-3.136,-0.104
'0:00.721',-1.323,-6.084,-4.761,3.703,1.719,-5.423,2.752,2.376,2.381,1.942,1.991,1.919,0.12,-3.132,-0.107
'0:00.722',-1.315,-6.08,-4.765,3.697,1.725,-5.423,2.748,2.372,2.379,1.94,1.992,1.921,0.123,-3.135,-0.107
'0:00.723',-1.31,-6.083,-4.772,3.696,1.731,-5.428,2.745,2.372,2.377,1.941,1.992,1.921,0.126,-3.133,-0.105
'0:00.724',-1.31,-6.087,-4.775,3.698,1.732,-5.431,2.745,2.372,2.383,1.945,1.996,1.921,0.126,-3.136,-0.111
'0:00.725',-1.312,-6.085,-4.772,3.698,1.73,-5.428,2.745,2.374,2.389,1.95,2.001,1.923,0.129,-3.143,-0.116
'0:00.726',-1.315,-6.079,-4.763,3.696,1.724,-5.421,2.744,2.374,2.394,1.954,2.002,1.923,0.128,-3.132,-0.116
'0:00.727',-1.312,-6.077,-4.764,3.694,1.726,-5.42,2.744,2.373,2.397,1.954,2.002,1.922,0.127,-3.131,-0.116
'0:00.728',-1.315,-6.079,-4.763,3.696,1.724,-5.42,2.747,2.375,2.396,1.956,2.002,1.923,0.127,-3.134,-0.117
'0:00.729',-1.317,-6.086,-4.769,3.7,1.726,-5.427,2.745,2.375,2.396,1.956,2.003,1.925,0.128,-3.14,-0.118
'0:00.730',-1.315,-6.085,-4.769,3.7,1.727,-5.427,2.744,2.376,2.396,1.954,2.002,1.923,0.128,-3.143,-0.117
'0:00.731',-1.321,-6.079,-4.756,3.7,1.717,-5.417,2.745,2.377,2.398,1.955,2.003,1.924,0.125,-3.132,-0.115
'0:00.732',-1.325,-6.08,-4.755,3.701,1.715,-5.417,2.745,2.381,2.401,1.957,2.004,1.925,0.126,-3.13,-0.115
'0:00.733',-1.319,-6.078,-4.759,3.698,1.72,-5.418,2.747,2.386,2.403,1.958,2.004,1.923,0.127,-3.131,-0.117
'0:00.734',-1.315,-6.075,-4.76,3.695,1.722,-5.418,2.747,2.386,2.401,1.96,2.008,1.927,0.129,-3.13,-0.115
'0:00.735',-1.317,-6.075,-4.758,3.696,1.72,-5.417,2.743,2.384,2.398,1.96,2.01,1.929,0.131,-3.13,-0.115
'0:00.736',-1.32,-6.079,-4.758,3.699,1.718,-5.418,2.744,2.386,2.4,1.962,2.01,1.927,0.129,-3.134,-0.119
'0:00.737',-1.323,-6.083,-4.761,3.702,1.719,-5.421,2.747,2.391,2.405,1.966,2.014,1.929,0.129,-3.131,-0.119
'0:00.738',-1.314,-6.078,-4.763,3.696,1.724,-5.42,2.746,2.389,2.406,1.964,2.011,1.929,0.13,-3.136,-0.119
'0:00.739',-1.31,-6.074,-4.763,3.692,1.726,-5.418,2.746,2.386,2.405,1.962,2.006,1.925,0.129,-3.139,-0.12
'0:00.740',-1.316,-6.072,-4.756,3.694,1.72,-5.414,2.745,2.386,2.405,1.964,2.009,1.926,0.129,-3.122,-0.118
'0:00.741',-1.317,-6.069,-4.751,3.692,1.716,-5.41,2.743,2.385,2.406,1.964,2.011,1.927,0.131,-3.12,-0.12
'0:00.742',-1.319,-6.071,-4.75,3.695,1.715,-5.41,2.742,2.384,2.406,1.965,2.014,1.927,0.131,-3.121,-0.122
'0:00.743',-1.308,-6.067,-4.758,3.687,1.724,-5.412,2.74,2.384,2.408,1.968,2.017,1.93,0.136,-3.128,-0.123
'0:00.744',-1.296,-6.059,-4.763,3.678,1.732,-5.41,2.736,2.382,2.409,1.97,2.018,1.931,0.14,-3.127,-0.122
'0:00.745',-1.296,-6.06,-4.764,3.678,1.734,-5.412,2.735,2.381,2.408,1.97,2.018,1.933,0.14,-3.12,-0.119
'0:00.746',-1.302,-6.059,-4.758,3.68,1.728,-5.409,2.74,2.386,2.413,1.974,2.02,1.934,0.141,-3.122,-0.121
'0:00.747',-1.306,-6.059,-4.752,3.682,1.723,-5.404,2.743,2.389,2.417,1.978,2.022,1.934,0.141,-3.117,-0.119
'0:00.748',-1.308,-6.064,-4.756,3.685,1.724,-5.41,2.743,2.392,2.416,1.976,2.022,1.935,0.142,-3.12,-0.115
'0:00.749',-1.3,-6.068,-4.768,3.683,1.734,-5.418,2.741,2.389,2.413,1.976,2.019,1.934,0.143,-3.124,-0.117
'0:00.750',-1.285,-6.064,-4.779,3.674,1.746,-5.421,2.737,2.384,2.412,1.973,2.017,1.934,0.146,-3.13,-0.118
'0:00.751',-1.291,-6.062,-4.771,3.676,1.74,-5.417,2.74,2.39,2.417,1.979,2.02,1.935,0.146,-3.128,-0.121
'0:00.752',-1.304,-6.066,-4.761,3.685,1.728,-5.414,2.747,2.398,2.424,1.984,2.023,1.938,0.146,-3.126,-0.118
'0:00.753',-1.303,-6.058,-4.755,3.68,1.726,-5.406,2.744,2.398,2.425,1.983,2.023,1.937,0.147,-3.12,-0.12
'0:00.754',-1.294,-6.054,-4.76,3.673,1.733,-5.407,2.739,2.393,2.423,1.982,2.022,1.937,0.149,-3.119,-0.117
'0:00.755',-1.292,-6.053,-4.76,3.672,1.734,-5.405,2.739,2.395,2.425,1.984,2.022,1.938,0.151,-3.118,-0.119
'0:00.756',-1.292,-6.046,-4.753,3.669,1.73,-5.399,2.738,2.398,2.429,1.988,2.026,1.938,0.15,-3.107,-0.129
'0:00.757',-1.291,-6.05,-4.758,3.67,1.734,-5.404,2.737,2.398,2.432,1.99,2.026,1.938,0.15,-3.109,-0.125
'0:00.758',-1.288,-6.052,-4.763,3.67,1.737,-5.407,2.736,2.398,2.43,1.99,2.023,1.937,0.152,-3.116,-0.119
'0:00.759',-1.289,-6.053,-4.763,3.671,1.737,-5.407,2.736,2.397,2.431,1.99,2.022,1.938,0.153,-3.12,-0.122
'0:00.760',-1.29,-6.051,-4.761,3.67,1.736,-5.406,2.736,2.397,2.43,1.988,2.022,1.938,0.152,-3.123,-0.127
'0:00.761',-1.284,-6.05,-4.766,3.667,1.741,-5.407,2.731,2.393,2.428,1.986,2.02,1.938,0.154,-3.122,-0.122
'0:00.762',-1.288,-6.048,-4.76,3.667,1.736,-5.403,2.731,2.39,2.429,1.99,2.024,1.939,0.154,-3.116,-0.121
'0:00.763',-1.292,-6.046,-4.753,3.668,1.73,-5.399,2.732,2.392,2.429,1.993,2.029,1.94,0.156,-3.119,-0.123
'0:00.764',-1.291,-6.048,-4.757,3.669,1.733,-5.402,2.735,2.394,2.433,1.995,2.032,1.94,0.157,-3.126,-0.122
'0:00.765',-1.286,-6.051,-4.763,3.668,1.738,-5.407,2.735,2.397,2.438,2,2.037,1.944,0.159,-3.124,-0.128
'0:00.766',-1.288,-6.054,-4.766,3.671,1.738,-5.41,2.737,2.405,2.446,2.006,2.038,1.944,0.158,-3.124,-0.132
'0:00.767',-1.29,-6.054,-4.764,3.671,1.737,-5.409,2.741,2.409,2.45,2.011,2.042,1.942,0.158,-3.127,-0.131
'0:00.768',-1.286,-6.05,-4.763,3.667,1.738,-5.407,2.741,2.405,2.45,2.011,2.045,1.944,0.161,-3.12,-0.13
'0:00.769',-1.286,-6.046,-4.76,3.666,1.736,-5.402,2.741,2.407,2.45,2.012,2.045,1.944,0.161,-3.123,-0.133
'0:00.770',-1.283,-6.051,-4.767,3.666,1.742,-5.409,2.738,2.405,2.448,2.013,2.046,1.946,0.163,-3.135,-0.135
'0:00.771',-1.282,-6.048,-4.765,3.664,1.741,-5.406,2.738,2.408,2.449,2.013,2.048,1.946,0.163,-3.126,-0.131
'0:00.772',-1.28,-6.04,-4.758,3.659,1.738,-5.399,2.74,2.414,2.455,2.018,2.051,1.948,0.164,-3.115,-0.132
'0:00.773',-1.277,-6.037,-4.76,3.656,1.742,-5.399,2.74,2.416,2.462,2.022,2.054,1.949,0.167,-3.116,-0.139
'0:00.774',-1.28,-6.033,-4.753,3.656,1.736,-5.393,2.74,2.421,2.466,2.025,2.058,1.95,0.167,-3.11,-0.141
'0:00.775',-1.282,-6.034,-4.752,3.657,1.734,-5.392,2.736,2.417,2.465,2.025,2.058,1.948,0.165,-3.1,-0.136
'0:00.776',-1.278,-6.038,-4.761,3.658,1.741,-5.399,2.732,2.409,2.459,2.022,2.056,1.946,0.168,-3.102,-0.134
'0:00.777',-1.277,-6.04,-4.763,3.659,1.742,-5.402,2.728,2.405,2.455,2.021,2.057,1.947,0.17,-3.107,-0.133
'0:00.778',-1.276,-6.042,-4.764,3.659,1.744,-5.402,2.728,2.404,2.454,2.022,2.056,1.946,0.17,-3.112,-0.138
'0:00.779',-1.274,-6.044,-4.769,3.659,1.747,-5.407,2.732,2.408,2.461,2.028,2.06,1.948,0.171,-3.119,-0.14
'0:00.780',-1.276,-6.04,-4.763,3.658,1.744,-5.402,2.732,2.413,2.467,2.033,2.062,1.948,0.172,-3.114,-0.141
'0:00.781',-1.274,-6.033,-4.758,3.653,1.741,-5.395,2.732,2.413,2.469,2.036,2.063,1.95,0.175,-3.107,-0.144
'0:00.782',-1.27,-6.029,-4.76,3.649,1.744,-5.394,2.733,2.412,2.469,2.034,2.063,1.952,0.176,-3.1,-0.141
'0:00.783',-1.266,-6.035,-4.769,3.651,1.751,-5.402,2.731,2.413,2.47,2.034,2.063,1.95,0.177,-3.109,-0.141
'0:00.784',-1.268,-6.038,-4.77,3.652,1.751,-5.404,2.731,2.42,2.479,2.045,2.069,1.954,0.18,-3.112,-0.141
'0:00.785',-1.272,-6.029,-4.758,3.651,1.742,-5.394,2.735,2.426,2.488,2.054,2.075,1.959,0.18,-3.099,-0.146
'0:00.786',-1.27,-6.027,-4.756,3.648,1.742,-5.391,2.732,2.425,2.487,2.054,2.075,1.962,0.183,-3.103,-0.149
'0:00.787',-1.27,-6.025,-4.755,3.647,1.742,-5.389,2.732,2.425,2.487,2.054,2.075,1.961,0.183,-3.101,-0.147
'0:00.788',-1.268,-6.026,-4.758,3.646,1.745,-5.391,2.732,2.422,2.489,2.054,2.075,1.962,0.184,-3.101,-0.146
'0:00.789',-1.26,-6.024,-4.764,3.642,1.752,-5.394,2.729,2.42,2.486,2.051,2.074,1.963,0.188,-3.102,-0.145
'0:00.790',-1.258,-6.026,-4.768,3.642,1.754,-5.396,2.729,2.426,2.49,2.054,2.075,1.965,0.191,-3.102,-0.141
'0:00.791',-1.253,-6.023,-4.769,3.638,1.758,-5.396,2.729,2.43,2.495,2.057,2.075,1.968,0.196,-3.101,-0.143
'0:00.792',-1.25,-6.018,-4.767,3.634,1.758,-5.392,2.729,2.43,2.498,2.061,2.08,1.97,0.197,-3.101,-0.151
'0:00.793',-1.252,-6.019,-4.768,3.635,1.758,-5.394,2.729,2.433,2.502,2.065,2.083,1.97,0.197,-3.103,-0.15
'0:00.794',-1.254,-6.016,-4.761,3.635,1.754,-5.388,2.731,2.436,2.509,2.073,2.087,1.972,0.199,-3.094,-0.154
'0:00.795',-1.256,-6.018,-4.761,3.637,1.752,-5.389,2.73,2.439,2.514,2.078,2.09,1.974,0.201,-3.095,-0.155
'0:00.796',-1.258,-6.019,-4.762,3.638,1.752,-5.391,2.728,2.442,2.516,2.08,2.094,1.976,0.205,-3.099,-0.154
'0:00.797',-1.256,-6.018,-4.761,3.637,1.752,-5.389,2.729,2.442,2.519,2.084,2.095,1.976,0.208,-3.096,-0.157
'0:00.798',-1.255,-6.018,-4.762,3.636,1.753,-5.389,2.729,2.445,2.52,2.084,2.093,1.974,0.207,-3.096,-0.161
'0:00.799',-1.257,-6.013,-4.756,3.635,1.749,-5.385,2.731,2.449,2.525,2.09,2.1,1.978,0.209,-3.083,-0.164
'0:00.800',-1.254,-6.014,-4.758,3.635,1.752,-5.386,2.731,2.452,2.53,2.094,2.102,1.977,0.21,-3.08,-0.163
'0:00.801',-1.249,-6.016,-4.767,3.633,1.759,-5.391,2.728,2.454,2.533,2.096,2.102,1.976,0.213,-3.094,-0.164
'0:00.802',-1.235,-6.005,-4.769,3.619,1.767,-5.386,2.725,2.457,2.54,2.104,2.108,1.984,0.22,-3.093,-0.163
'0:00.803',-1.234,-6.003,-4.768,3.619,1.766,-5.385,2.726,2.459,2.546,2.11,2.111,1.986,0.222,-3.095,-0.159
'0:00.804',-1.241,-6.007,-4.766,3.624,1.762,-5.386,2.73,2.465,2.552,2.115,2.115,1.986,0.222,-3.099,-0.167
'0:00.805',-1.24,-6.002,-4.762,3.621,1.761,-5.381,2.731,2.467,2.557,2.12,2.119,1.988,0.222,-3.087,-0.171
'0:00.806',-1.242,-5.999,-4.755,3.621,1.756,-5.377,2.729,2.469,2.56,2.123,2.123,1.988,0.225,-3.074,-0.171
'0:00.807',-1.24,-5.997,-4.756,3.618,1.758,-5.377,2.73,2.474,2.566,2.127,2.123,1.99,0.228,-3.08,-0.17
'0:00.808',-1.234,-6,-4.766,3.617,1.766,-5.383,2.729,2.475,2.57,2.135,2.13,1.996,0.232,-3.09,-0.172
'0:00.809',-1.229,-6.003,-4.772,3.615,1.772,-5.388,2.728,2.477,2.572,2.138,2.135,1.996,0.235,-3.099,-0.177
'0:00.810',-1.228,-6,-4.771,3.615,1.771,-5.386,2.728,2.479,2.576,2.14,2.132,1.994,0.235,-3.094,-0.176
'0:00.811',-1.224,-5.99,-4.766,3.607,1.771,-5.378,2.728,2.483,2.581,2.145,2.138,1.998,0.237,-3.08,-0.179
'0:00.812',-1.218,-5.988,-4.77,3.603,1.776,-5.378,2.728,2.486,2.584,2.151,2.142,1.998,0.241,-3.086,-0.18
'0:00.813',-1.218,-5.981,-4.763,3.599,1.772,-5.372,2.727,2.489,2.589,2.155,2.144,2,0.244,-3.083,-0.181
'0:00.814',-1.218,-5.975,-4.756,3.597,1.769,-5.365,2.729,2.494,2.598,2.164,2.147,1.998,0.243,-3.078,-0.189
'0:00.815',-1.224,-5.981,-4.756,3.603,1.766,-5.368,2.735,2.503,2.608,2.175,2.155,2.003,0.245,-3.059,-0.187
'0:00.816',-1.222,-5.981,-4.76,3.602,1.769,-5.37,2.736,2.506,2.616,2.181,2.161,2.007,0.248,-3.067,-0.194
'0:00.817',-1.217,-5.981,-4.764,3.599,1.773,-5.372,2.736,2.509,2.619,2.184,2.164,2.007,0.25,-3.078,-0.201
'0:00.818',-1.211,-5.981,-4.769,3.596,1.779,-5.375,2.736,2.513,2.623,2.188,2.167,2.01,0.253,-3.075,-0.2
'0:00.819',-1.196,-5.975,-4.778,3.586,1.79,-5.377,2.733,2.513,2.626,2.191,2.167,2.01,0.259,-3.083,-0.201
'0:00.820',-1.198,-5.968,-4.771,3.583,1.786,-5.369,2.736,2.518,2.628,2.193,2.167,2.01,0.259,-3.063,-0.195
'0:00.821',-1.201,-5.97,-4.768,3.586,1.784,-5.369,2.739,2.523,2.633,2.197,2.171,2.013,0.261,-3.066,-0.196
'0:00.822',-1.196,-5.973,-4.777,3.585,1.79,-5.375,2.736,2.522,2.634,2.199,2.174,2.014,0.265,-3.078,-0.201
'0:00.823',-1.19,-5.973,-4.781,3.582,1.795,-5.377,2.735,2.524,2.635,2.203,2.176,2.017,0.269,-3.075,-0.201
'0:00.824',-1.188,-5.963,-4.776,3.575,1.794,-5.369,2.733,2.531,2.647,2.214,2.183,2.021,0.274,-3.064,-0.203
'0:00.825',-1.188,-5.958,-4.769,3.573,1.79,-5.364,2.732,2.53,2.652,2.217,2.184,2.02,0.276,-3.063,-0.205
'0:00.826',-1.181,-5.958,-4.776,3.57,1.797,-5.367,2.731,2.531,2.658,2.224,2.189,2.025,0.283,-3.07,-0.208
'0:00.827',-1.175,-5.954,-4.779,3.564,1.802,-5.366,2.731,2.538,2.67,2.235,2.2,2.033,0.291,-3.062,-0.208
'0:00.828',-1.173,-5.955,-4.782,3.564,1.804,-5.369,2.733,2.538,2.672,2.24,2.207,2.035,0.292,-3.067,-0.211
'0:00.829',-1.173,-5.951,-4.777,3.562,1.802,-5.364,2.736,2.543,2.68,2.249,2.213,2.04,0.294,-3.06,-0.216
'0:00.830',-1.173,-5.942,-4.769,3.558,1.798,-5.355,2.738,2.55,2.687,2.255,2.216,2.044,0.299,-3.05,-0.218
'0:00.831',-1.173,-5.943,-4.769,3.558,1.798,-5.356,2.738,2.554,2.692,2.26,2.221,2.046,0.302,-3.045,-0.217
'0:00.832',-1.173,-5.943,-4.769,3.558,1.798,-5.356,2.737,2.561,2.7,2.267,2.227,2.049,0.304,-3.041,-0.222
'0:00.833',-1.16,-5.936,-4.776,3.548,1.808,-5.356,2.734,2.562,2.704,2.271,2.231,2.054,0.312,-3.045,-0.225
'0:00.834',-1.153,-5.942,-4.79,3.547,1.818,-5.365,2.734,2.567,2.711,2.278,2.237,2.058,0.318,-3.061,-0.229
'0:00.835',-1.163,-5.942,-4.779,3.552,1.808,-5.36,2.74,2.576,2.721,2.288,2.244,2.064,0.322,-3.063,-0.236
'0:00.836',-1.163,-5.927,-4.763,3.545,1.799,-5.345,2.741,2.583,2.729,2.297,2.253,2.071,0.326,-3.034,-0.233
'0:00.837',-1.161,-5.929,-4.767,3.545,1.802,-5.348,2.74,2.587,2.733,2.303,2.257,2.071,0.328,-3.038,-0.236
'0:00.838',-1.152,-5.928,-4.776,3.54,1.812,-5.351,2.737,2.588,2.736,2.304,2.256,2.069,0.331,-3.05,-0.243
'0:00.839',-1.143,-5.923,-4.781,3.533,1.819,-5.352,2.738,2.589,2.74,2.307,2.258,2.071,0.334,-3.046,-0.245
'0:00.840',-1.143,-5.923,-4.779,3.533,1.817,-5.351,2.74,2.595,2.751,2.319,2.268,2.077,0.339,-3.042,-0.248
'0:00.841',-1.141,-5.922,-4.78,3.531,1.819,-5.351,2.74,2.6,2.76,2.327,2.276,2.082,0.345,-3.041,-0.246
'0:00.842',-1.139,-5.921,-4.781,3.53,1.821,-5.351,2.74,2.603,2.764,2.334,2.281,2.082,0.346,-3.041,-0.249
'0:00.843',-1.135,-5.915,-4.78,3.525,1.823,-5.348,2.74,2.607,2.772,2.342,2.291,2.087,0.351,-3.038,-0.252
'0:00.844',-1.127,-5.918,-4.79,3.522,1.831,-5.353,2.738,2.611,2.778,2.349,2.296,2.09,0.358,-3.053,-0.256
'0:00.845',-1.128,-5.91,-4.782,3.519,1.827,-5.346,2.741,2.619,2.79,2.36,2.304,2.094,0.36,-3.041,-0.258
'0:00.846',-1.123,-5.902,-4.779,3.513,1.828,-5.34,2.743,2.627,2.801,2.372,2.313,2.102,0.364,-3.026,-0.266
'0:00.847',-1.111,-5.902,-4.79,3.506,1.839,-5.345,2.741,2.631,2.806,2.378,2.317,2.104,0.371,-3.028,-0.271
'0:00.848',-1.106,-5.896,-4.789,3.501,1.841,-5.342,2.74,2.634,2.809,2.382,2.319,2.104,0.375,-3.029,-0.272
'0:00.849',-1.106,-5.896,-4.79,3.501,1.841,-5.343,2.739,2.635,2.811,2.384,2.319,2.103,0.378,-3.039,-0.278
'0:00.850',-1.101,-5.899,-4.798,3.499,1.849,-5.348,2.739,2.638,2.817,2.39,2.325,2.106,0.383,-3.036,-0.278
'0:00.851',-1.091,-5.901,-4.809,3.496,1.859,-5.354,2.737,2.639,2.821,2.397,2.33,2.11,0.388,-3.038,-0.278
'0:00.852',-1.098,-5.894,-4.795,3.495,1.848,-5.343,2.74,2.647,2.828,2.406,2.338,2.111,0.391,-3.031,-0.282
'0:00.853',-1.101,-5.888,-4.787,3.494,1.843,-5.338,2.743,2.655,2.838,2.417,2.349,2.118,0.395,-3.021,-0.284
'0:00.854',-1.097,-5.89,-4.792,3.494,1.847,-5.34,2.742,2.655,2.841,2.421,2.352,2.12,0.398,-3.024,-0.283
'0:00.855',-1.093,-5.89,-4.796,3.491,1.851,-5.343,2.739,2.655,2.845,2.425,2.356,2.122,0.402,-3.025,-0.283
'0:00.856',-1.081,-5.882,-4.8,3.482,1.859,-5.34,2.736,2.658,2.851,2.433,2.361,2.127,0.41,-3.022,-0.285
'0:00.857',-1.079,-5.88,-4.8,3.479,1.861,-5.34,2.735,2.661,2.852,2.435,2.363,2.127,0.411,-3.023,-0.289
'0:00.858',-1.08,-5.883,-4.801,3.481,1.861,-5.341,2.737,2.668,2.86,2.444,2.369,2.132,0.414,-3.026,-0.292
'0:00.859',-1.078,-5.875,-4.796,3.476,1.859,-5.335,2.74,2.674,2.869,2.453,2.377,2.136,0.417,-3.014,-0.295
'0:00.860',-1.081,-5.873,-4.792,3.477,1.855,-5.332,2.744,2.679,2.874,2.461,2.382,2.139,0.42,-3.004,-0.296
'0:00.861',-1.075,-5.866,-4.79,3.47,1.857,-5.327,2.741,2.678,2.873,2.462,2.383,2.142,0.426,-3,-0.295
'0:00.862',-1.067,-5.866,-4.798,3.466,1.865,-5.331,2.732,2.67,2.866,2.455,2.382,2.141,0.429,-3.003,-0.295
'0:00.863',-1.073,-5.866,-4.792,3.47,1.859,-5.328,2.733,2.675,2.873,2.465,2.39,2.146,0.431,-3.001,-0.296
'0:00.864',-1.063,-5.859,-4.795,3.461,1.865,-5.326,2.732,2.675,2.877,2.47,2.396,2.148,0.435,-3.006,-0.299
'0:00.865',-1.05,-5.854,-4.803,3.451,1.877,-5.327,2.731,2.674,2.881,2.473,2.4,2.152,0.44,-3.002,-0.303
'0:00.866',-1.05,-5.851,-4.8,3.45,1.875,-5.324,2.736,2.682,2.889,2.482,2.406,2.159,0.443,-2.995,-0.305
'0:00.867',-1.052,-5.854,-4.801,3.453,1.875,-5.327,2.737,2.685,2.895,2.485,2.41,2.161,0.446,-3.001,-0.308
'0:00.868',-1.053,-5.852,-4.798,3.452,1.872,-5.324,2.736,2.688,2.9,2.49,2.413,2.163,0.449,-2.999,-0.308
'0:00.869',-1.057,-5.848,-4.79,3.453,1.866,-5.319,2.734,2.688,2.9,2.494,2.419,2.165,0.451,-2.999,-0.31
'0:00.870',-1.058,-5.848,-4.79,3.453,1.865,-5.319,2.733,2.685,2.898,2.494,2.421,2.166,0.453,-2.996,-0.309
'0:00.871',-1.054,-5.856,-4.8,3.454,1.873,-5.327,2.734,2.685,2.893,2.491,2.42,2.167,0.455,-3.007,-0.308
'0:00.872',-1.04,-5.853,-4.812,3.446,1.886,-5.332,2.731,2.687,2.894,2.49,2.421,2.167,0.457,-3.011,-0.312
'0:00.873',-1.028,-5.841,-4.811,3.434,1.891,-5.325,2.728,2.687,2.896,2.493,2.425,2.17,0.462,-2.993,-0.309
'0:00.874',-1.028,-5.84,-4.811,3.433,1.891,-5.325,2.724,2.687,2.893,2.491,2.426,2.174,0.465,-2.989,-0.306
'0:00.875',-1.028,-5.841,-4.813,3.434,1.892,-5.327,2.72,2.688,2.893,2.49,2.426,2.175,0.468,-2.998,-0.31
'0:00.876',-1.034,-5.84,-4.805,3.437,1.885,-5.322,2.72,2.689,2.898,2.495,2.431,2.176,0.466,-2.994,-0.312
'0:00.877',-1.036,-5.838,-4.8,3.437,1.881,-5.319,2.721,2.69,2.899,2.498,2.436,2.178,0.466,-2.986,-0.309
'0:00.878',-1.042,-5.838,-4.796,3.44,1.877,-5.317,2.723,2.691,2.9,2.502,2.441,2.182,0.469,-2.993,-0.311
'0:00.879',-1.042,-5.839,-4.795,3.441,1.876,-5.316,2.725,2.698,2.904,2.509,2.446,2.185,0.472,-2.992,-0.311
'0:00.880',-1.04,-5.836,-4.795,3.438,1.877,-5.315,2.728,2.702,2.905,2.511,2.446,2.187,0.474,-2.982,-0.311
'0:00.881',-1.036,-5.834,-4.796,3.435,1.88,-5.315,2.725,2.693,2.901,2.509,2.449,2.189,0.476,-2.982,-0.313
'0:00.882',-1.03,-5.832,-4.802,3.43,1.886,-5.316,2.719,2.687,2.894,2.502,2.449,2.191,0.479,-2.986,-0.309
'0:00.883',-1.03,-5.832,-4.801,3.43,1.885,-5.316,2.716,2.683,2.887,2.499,2.448,2.191,0.479,-2.986,-0.306
'0:00.884',-1.026,-5.833,-4.806,3.429,1.89,-5.319,2.715,2.68,2.881,2.498,2.448,2.192,0.481,-2.991,-0.304
'0:00.885',-1.018,-5.832,-4.814,3.425,1.897,-5.322,2.715,2.682,2.881,2.498,2.451,2.196,0.483,-2.995,-0.305
'0:00.886',-1.024,-5.833,-4.809,3.428,1.893,-5.321,2.716,2.682,2.885,2.504,2.457,2.2,0.484,-2.986,-0.306
'0:00.887',-1.025,-5.834,-4.808,3.429,1.891,-5.321,2.713,2.68,2.884,2.505,2.46,2.201,0.484,-2.984,-0.31
'0:00.888',-1.025,-5.836,-4.809,3.43,1.892,-5.322,2.71,2.673,2.878,2.499,2.459,2.198,0.483,-2.99,-0.313
'0:00.889',-1.028,-5.832,-4.803,3.429,1.887,-5.317,2.711,2.674,2.878,2.502,2.462,2.201,0.483,-2.988,-0.311
'0:00.890',-1.022,-5.825,-4.802,3.424,1.889,-5.313,2.709,2.671,2.876,2.499,2.465,2.206,0.485,-2.983,-0.305
'0:00.891',-1.022,-5.828,-4.804,3.425,1.891,-5.316,2.707,2.666,2.868,2.494,2.462,2.205,0.487,-2.981,-0.3
'0:00.892',-1.022,-5.828,-4.804,3.425,1.891,-5.316,2.711,2.667,2.867,2.494,2.464,2.206,0.486,-2.974,-0.295
'0:00.893',-1.025,-5.824,-4.798,3.424,1.887,-5.311,2.713,2.667,2.865,2.491,2.462,2.207,0.484,-2.977,-0.299
'0:00.894',-1.03,-5.824,-4.793,3.426,1.881,-5.308,2.708,2.66,2.857,2.482,2.456,2.205,0.482,-2.98,-0.299
'0:00.895',-1.026,-5.827,-4.8,3.427,1.887,-5.313,2.704,2.65,2.848,2.47,2.447,2.2,0.48,-2.986,-0.289
'0:00.896',-1.028,-5.824,-4.795,3.425,1.884,-5.309,2.704,2.647,2.843,2.467,2.444,2.2,0.48,-2.987,-0.293
'0:00.897',-1.03,-5.825,-4.793,3.428,1.881,-5.309,2.704,2.644,2.841,2.462,2.446,2.203,0.479,-2.985,-0.289
'0:00.898',-1.03,-5.826,-4.794,3.428,1.881,-5.309,2.7,2.639,2.832,2.451,2.439,2.2,0.476,-2.982,-0.284
'0:00.899',-1.03,-5.822,-4.792,3.426,1.881,-5.306,2.697,2.636,2.826,2.443,2.433,2.196,0.474,-2.979,-0.285
'0:00.900',-1.029,-5.824,-4.793,3.426,1.882,-5.308,2.696,2.634,2.823,2.438,2.432,2.196,0.474,-2.985,-0.283
'0:00.901',-1.032,-5.826,-4.793,3.429,1.88,-5.309,2.695,2.627,2.818,2.436,2.432,2.199,0.474,-2.985,-0.281
'0:00.902',-1.036,-5.832,-4.795,3.433,1.88,-5.314,2.692,2.619,2.809,2.429,2.426,2.196,0.471,-2.988,-0.274
'0:00.903',-1.035,-5.831,-4.795,3.433,1.88,-5.312,2.691,2.614,2.8,2.422,2.422,2.196,0.47,-2.99,-0.27
'0:00.904',-1.038,-5.835,-4.795,3.436,1.878,-5.314,2.693,2.611,2.796,2.416,2.418,2.194,0.467,-2.989,-0.268
'0:00.905',-1.046,-5.839,-4.793,3.442,1.873,-5.316,2.694,2.603,2.787,2.403,2.405,2.188,0.459,-2.992,-0.264
'0:00.906',-1.052,-5.844,-4.792,3.447,1.87,-5.317,2.69,2.593,2.774,2.39,2.393,2.18,0.454,-2.998,-0.258
'0:00.907',-1.056,-5.849,-4.793,3.452,1.869,-5.32,2.689,2.589,2.764,2.38,2.385,2.178,0.448,-3.001,-0.253
'0:00.908',-1.062,-5.851,-4.788,3.457,1.863,-5.319,2.691,2.587,2.755,2.369,2.377,2.175,0.442,-3.003,-0.249
'0:00.909',-1.069,-5.856,-4.787,3.462,1.859,-5.321,2.692,2.58,2.746,2.358,2.371,2.17,0.436,-3.005,-0.244
'0:00.910',-1.077,-5.856,-4.779,3.466,1.851,-5.316,2.692,2.575,2.738,2.349,2.367,2.166,0.431,-2.998,-0.243
'0:00.911',-1.079,-5.857,-4.777,3.468,1.849,-5.317,2.691,2.57,2.729,2.342,2.361,2.162,0.425,-2.994,-0.239
'0:00.912',-1.075,-5.859,-4.784,3.466,1.854,-5.321,2.691,2.562,2.721,2.335,2.354,2.157,0.42,-3.001,-0.232
'0:00.913',-1.079,-5.859,-4.78,3.469,1.851,-5.319,2.692,2.558,2.714,2.325,2.346,2.152,0.415,-3.01,-0.231
'0:00.914',-1.083,-5.865,-4.781,3.474,1.849,-5.322,2.694,2.556,2.708,2.318,2.343,2.151,0.409,-3.014,-0.232
'0:00.915',-1.089,-5.868,-4.777,3.478,1.844,-5.322,2.694,2.554,2.7,2.311,2.334,2.146,0.404,-3.01,-0.228
'0:00.916',-1.097,-5.872,-4.774,3.483,1.839,-5.322,2.695,2.549,2.692,2.301,2.325,2.14,0.397,-3.007,-0.228
'0:00.917',-1.099,-5.88,-4.779,3.49,1.84,-5.33,2.692,2.538,2.679,2.289,2.316,2.137,0.393,-3.013,-0.222
'0:00.918',-1.099,-5.881,-4.782,3.49,1.841,-5.331,2.687,2.528,2.666,2.276,2.304,2.133,0.388,-3.018,-0.213
'0:00.919',-1.109,-5.888,-4.777,3.498,1.834,-5.332,2.688,2.523,2.659,2.264,2.301,2.13,0.382,-3.027,-0.21
'0:00.920',-1.112,-5.889,-4.776,3.501,1.831,-5.332,2.687,2.517,2.645,2.252,2.297,2.127,0.38,-3.026,-0.204
'0:00.921',-1.111,-5.888,-4.776,3.499,1.832,-5.332,2.685,2.509,2.635,2.241,2.288,2.122,0.377,-3.015,-0.2
'0:00.922',-1.125,-5.896,-4.77,3.51,1.823,-5.332,2.687,2.501,2.628,2.231,2.279,2.118,0.368,-3.018,-0.199
'0:00.923',-1.133,-5.902,-4.769,3.518,1.818,-5.335,2.687,2.493,2.62,2.224,2.272,2.113,0.362,-3.026,-0.195
'0:00.924',-1.135,-5.905,-4.77,3.521,1.817,-5.338,2.688,2.491,2.616,2.218,2.264,2.108,0.356,-3.027,-0.194
'0:00.925',-1.135,-5.902,-4.767,3.518,1.816,-5.334,2.687,2.486,2.607,2.209,2.259,2.103,0.35,-3.021,-0.194
'0:00.926',-1.141,-5.905,-4.763,3.523,1.811,-5.334,2.687,2.482,2.598,2.199,2.25,2.096,0.343,-3.019,-0.189
'0:00.927',-1.153,-5.906,-4.753,3.53,1.8,-5.33,2.687,2.478,2.591,2.189,2.241,2.092,0.336,-3.023,-0.181
'0:00.928',-1.154,-5.913,-4.759,3.534,1.802,-5.336,2.685,2.47,2.584,2.183,2.24,2.091,0.336,-3.035,-0.176
'0:00.929',-1.158,-5.918,-4.76,3.538,1.801,-5.339,2.687,2.465,2.578,2.178,2.236,2.089,0.331,-3.034,-0.177
'0:00.930',-1.165,-5.923,-4.756,3.544,1.796,-5.339,2.687,2.462,2.572,2.17,2.23,2.083,0.323,-3.038,-0.177
'0:00.931',-1.167,-5.929,-4.761,3.549,1.797,-5.346,2.684,2.455,2.56,2.156,2.221,2.077,0.319,-3.037,-0.171
'0:00.932',-1.171,-5.931,-4.76,3.551,1.794,-5.345,2.683,2.445,2.543,2.139,2.208,2.073,0.313,-3.034,-0.165
'0:00.933',-1.176,-5.939,-4.763,3.558,1.794,-5.351,2.683,2.441,2.534,2.127,2.201,2.068,0.307,-3.049,-0.159
'0:00.934',-1.171,-5.939,-4.768,3.555,1.798,-5.353,2.68,2.435,2.526,2.119,2.197,2.066,0.306,-3.041,-0.154
'0:00.935',-1.177,-5.939,-4.761,3.558,1.792,-5.35,2.68,2.429,2.518,2.111,2.19,2.063,0.302,-3.046,-0.158
'0:00.936',-1.187,-5.947,-4.76,3.567,1.786,-5.353,2.679,2.426,2.511,2.105,2.182,2.057,0.294,-3.057,-0.155
'0:00.937',-1.191,-5.949,-4.758,3.571,1.784,-5.354,2.678,2.421,2.5,2.091,2.167,2.05,0.286,-3.059,-0.151
'0:00.938',-1.202,-5.952,-4.749,3.578,1.772,-5.35,2.683,2.42,2.496,2.084,2.162,2.045,0.279,-3.057,-0.15
'0:00.939',-1.201,-5.954,-4.753,3.578,1.776,-5.353,2.683,2.418,2.491,2.081,2.16,2.044,0.276,-3.044,-0.142
'0:00.940',-1.196,-5.957,-4.761,3.576,1.782,-5.359,2.68,2.408,2.484,2.073,2.153,2.04,0.274,-3.054,-0.141
'0:00.941',-1.203,-5.963,-4.759,3.583,1.778,-5.36,2.679,2.405,2.478,2.066,2.147,2.037,0.269,-3.067,-0.14
'0:00.942',-1.212,-5.97,-4.758,3.591,1.772,-5.364,2.678,2.405,2.47,2.058,2.138,2.03,0.262,-3.068,-0.136
'0:00.943',-1.215,-5.971,-4.755,3.593,1.77,-5.362,2.681,2.402,2.465,2.053,2.131,2.025,0.257,-3.063,-0.136
'0:00.944',-1.21,-5.969,-4.759,3.59,1.774,-5.364,2.68,2.395,2.455,2.042,2.124,2.02,0.254,-3.066,-0.132
'0:00.945',-1.216,-5.973,-4.758,3.594,1.771,-5.365,2.683,2.392,2.451,2.038,2.118,2.016,0.247,-3.069,-0.132
'0:00.946',-1.234,-5.979,-4.745,3.607,1.756,-5.362,2.69,2.4,2.454,2.04,2.118,2.016,0.24,-3.065,-0.128
'0:00.947',-1.238,-5.987,-4.748,3.612,1.755,-5.367,2.692,2.393,2.445,2.03,2.114,2.013,0.235,-3.071,-0.123
'0:00.948',-1.232,-5.99,-4.758,3.611,1.763,-5.374,2.691,2.384,2.431,2.018,2.107,2.01,0.233,-3.079,-0.122
'0:00.949',-1.23,-5.989,-4.76,3.61,1.765,-5.375,2.688,2.378,2.421,2.007,2.099,2.005,0.227,-3.078,-0.118
'0:00.950',-1.241,-5.992,-4.751,3.617,1.754,-5.372,2.687,2.372,2.414,2,2.092,1.999,0.222,-3.076,-0.118
'0:00.951',-1.248,-5.997,-4.747,3.623,1.75,-5.372,2.688,2.372,2.41,1.996,2.087,1.998,0.218,-3.083,-0.117
'0:00.952',-1.241,-5.991,-4.75,3.616,1.754,-5.37,2.687,2.366,2.406,1.992,2.087,1.998,0.217,-3.078,-0.113
'0:00.953',-1.241,-5.989,-4.747,3.615,1.752,-5.367,2.685,2.362,2.402,1.99,2.085,1.998,0.216,-3.071,-0.111
'0:00.954',-1.242,-5.998,-4.755,3.62,1.756,-5.377,2.687,2.357,2.396,1.984,2.08,1.994,0.212,-3.083,-0.11
'0:00.955',-1.252,-6,-4.748,3.626,1.748,-5.374,2.692,2.357,2.394,1.981,2.077,1.992,0.207,-3.081,-0.108
'0:00.956',-1.258,-6.004,-4.745,3.631,1.743,-5.374,2.693,2.36,2.394,1.982,2.076,1.992,0.206,-3.079,-0.105
'0:00.957',-1.258,-6.006,-4.748,3.632,1.745,-5.378,2.693,2.358,2.392,1.977,2.072,1.99,0.204,-3.082,-0.106
'0:00.958',-1.26,-6.008,-4.748,3.635,1.744,-5.378,2.693,2.36,2.387,1.973,2.066,1.985,0.2,-3.081,-0.102
'0:00.959',-1.254,-6.008,-4.753,3.631,1.748,-5.38,2.692,2.357,2.385,1.969,2.062,1.984,0.199,-3.086,-0.099
'0:00.960',-1.26,-6.011,-4.75,3.636,1.744,-5.38,2.692,2.353,2.381,1.964,2.055,1.98,0.195,-3.091,-0.103
'0:00.961',-1.264,-6.018,-4.753,3.64,1.744,-5.385,2.692,2.352,2.376,1.956,2.049,1.974,0.193,-3.1,-0.102
'0:00.962',-1.266,-6.013,-4.747,3.639,1.74,-5.38,2.691,2.349,2.372,1.952,2.045,1.972,0.189,-3.093,-0.1
'0:00.963',-1.27,-6.016,-4.745,3.643,1.737,-5.38,2.688,2.345,2.366,1.947,2.042,1.97,0.186,-3.09,-0.096
'0:00.964',-1.266,-6.011,-4.744,3.639,1.738,-5.378,2.684,2.338,2.361,1.942,2.038,1.97,0.188,-3.086,-0.096
'0:00.965',-1.262,-6.011,-4.748,3.636,1.742,-5.38,2.683,2.337,2.359,1.941,2.037,1.97,0.189,-3.095,-0.099
'0:00.966',-1.265,-6.019,-4.753,3.641,1.744,-5.386,2.685,2.339,2.361,1.942,2.038,1.97,0.189,-3.103,-0.095
'0:00.967',-1.276,-6.016,-4.74,3.645,1.732,-5.378,2.688,2.34,2.363,1.942,2.037,1.967,0.182,-3.091,-0.091
'0:00.968',-1.28,-6.015,-4.735,3.647,1.728,-5.375,2.686,2.338,2.359,1.939,2.034,1.964,0.181,-3.09,-0.088
'0:00.969',-1.277,-6.013,-4.735,3.644,1.729,-5.373,2.686,2.337,2.356,1.938,2.034,1.964,0.179,-3.087,-0.089
'0:00.970',-1.277,-6.017,-4.739,3.647,1.73,-5.378,2.685,2.335,2.353,1.937,2.03,1.96,0.175,-3.092,-0.092
'0:00.971',-1.278,-6.024,-4.747,3.651,1.734,-5.385,2.683,2.332,2.348,1.931,2.023,1.955,0.173,-3.105,-0.089
'0:00.972',-1.278,-6.024,-4.745,3.651,1.734,-5.384,2.683,2.33,2.344,1.927,2.018,1.952,0.172,-3.103,-0.086
'0:00.973',-1.274,-6.021,-4.746,3.647,1.736,-5.383,2.682,2.332,2.344,1.926,2.018,1.954,0.173,-3.099,-0.085
'0:00.974',-1.272,-6.019,-4.747,3.645,1.738,-5.383,2.681,2.332,2.344,1.927,2.019,1.955,0.173,-3.099,-0.084
'0:00.975',-1.274,-6.021,-4.746,3.647,1.736,-5.383,2.683,2.331,2.342,1.927,2.021,1.953,0.172,-3.103,-0.085
'0:00.976',-1.274,-6.021,-4.747,3.647,1.736,-5.384,2.684,2.329,2.342,1.926,2.02,1.95,0.17,-3.104,-0.086
'0:00.977',-1.269,-6.019,-4.749,3.643,1.74,-5.383,2.683,2.325,2.338,1.923,2.02,1.949,0.17,-3.097,-0.084
'0:00.978',-1.271,-6.018,-4.747,3.644,1.738,-5.382,2.683,2.324,2.338,1.922,2.02,1.95,0.172,-3.096,-0.086
'0:00.979',-1.286,-6.021,-4.734,3.654,1.724,-5.378,2.688,2.329,2.342,1.924,2.02,1.95,0.168,-3.097,-0.087
'0:00.980',-1.281,-6.02,-4.739,3.65,1.728,-5.379,2.683,2.325,2.34,1.922,2.019,1.95,0.17,-3.103,-0.086
'0:00.981',-1.272,-6.021,-4.748,3.647,1.738,-5.385,2.679,2.321,2.339,1.921,2.017,1.95,0.171,-3.107,-0.086
'0:00.982',-1.28,-6.027,-4.747,3.652,1.734,-5.387,2.679,2.32,2.336,1.919,2.018,1.952,0.171,-3.104,-0.082
'0:00.983',-1.282,-6.025,-4.743,3.653,1.73,-5.384,2.68,2.316,2.33,1.911,2.015,1.952,0.171,-3.1,-0.078
'0:00.984',-1.288,-6.027,-4.738,3.656,1.725,-5.382,2.687,2.322,2.333,1.913,2.015,1.952,0.17,-3.106,-0.081
'0:00.985',-1.286,-6.024,-4.737,3.655,1.725,-5.38,2.685,2.32,2.329,1.911,2.015,1.952,0.17,-3.102,-0.077
'0:00.986',-1.288,-6.024,-4.736,3.655,1.724,-5.38,2.683,2.316,2.325,1.907,2.014,1.952,0.167,-3.093,-0.072
'0:00.987',-1.284,-6.029,-4.745,3.656,1.73,-5.387,2.683,2.317,2.326,1.907,2.01,1.954,0.169,-3.106,-0.075
'0:00.988',-1.279,-6.029,-4.75,3.654,1.735,-5.389,2.684,2.318,2.324,1.905,2.006,1.951,0.168,-3.108,-0.076
'0:00.989',-1.282,-6.03,-4.747,3.655,1.732,-5.388,2.69,2.322,2.326,1.909,2.01,1.952,0.168,-3.106,-0.078
'0:00.990',-1.286,-6.027,-4.741,3.656,1.727,-5.384,2.689,2.324,2.326,1.911,2.014,1.954,0.169,-3.098,-0.078
'0:00.991',-1.285,-6.021,-4.737,3.653,1.726,-5.379,2.687,2.321,2.325,1.911,2.011,1.952,0.168,-3.095,-0.077
'0:00.992',-1.278,-6.018,-4.739,3.647,1.731,-5.378,2.684,2.323,2.325,1.911,2.01,1.951,0.169,-3.098,-0.076
'0:00.993',-1.274,-6.017,-4.742,3.646,1.734,-5.38,2.682,2.322,2.324,1.911,2.01,1.949,0.167,-3.093,-0.073
'0:00.994',-1.274,-6.024,-4.75,3.648,1.738,-5.387,2.683,2.322,2.325,1.913,2.013,1.95,0.169,-3.098,-0.074
'0:00.995',-1.276,-6.026,-4.749,3.65,1.736,-5.387,2.684,2.323,2.328,1.914,2.014,1.95,0.168,-3.096,-0.076
'0:00.996',-1.273,-6.024,-4.751,3.648,1.738,-5.388,2.684,2.324,2.329,1.917,2.018,1.95,0.169,-3.099,-0.081
'0:00.997',-1.279,-6.03,-4.75,3.654,1.735,-5.389,2.687,2.329,2.332,1.917,2.015,1.948,0.166,-3.103,-0.084
'0:00.998',-1.287,-6.029,-4.742,3.658,1.727,-5.386,2.69,2.329,2.333,1.915,2.013,1.945,0.161,-3.098,-0.082
'0:00.999',-1.29,-6.029,-4.739,3.659,1.724,-5.383,2.692,2.331,2.333,1.919,2.015,1.947,0.162,-3.095,-0.082
'0:01.000',-1.286,-6.024,-4.737,3.655,1.726,-5.38,2.688,2.326,2.327,1.911,2.009,1.944,0.161,-3.094,-0.077
'0:01.001',-1.281,-6.021,-4.739,3.651,1.728,-5.38,2.683,2.322,2.326,1.911,2.013,1.948,0.165,-3.095,-0.074
'0:01.002',-1.294,-6.024,-4.73,3.659,1.718,-5.377,2.687,2.328,2.33,1.916,2.022,1.955,0.166,-3.098,-0.076
'0:01.003',-1.294,-6.027,-4.732,3.659,1.719,-5.38,2.688,2.329,2.329,1.914,2.017,1.952,0.164,-3.102,-0.079
'0:01.004',-1.284,-6.027,-4.742,3.655,1.728,-5.385,2.686,2.328,2.331,1.912,2.012,1.95,0.163,-3.102,-0.081
'0:01.005',-1.272,-6.026,-4.753,3.648,1.74,-5.389,2.683,2.322,2.326,1.907,2.007,1.947,0.163,-3.104,-0.079
'0:01.006',-1.274,-6.027,-4.753,3.65,1.739,-5.389,2.682,2.324,2.328,1.907,2.006,1.944,0.161,-3.099,-0.078
'0:01.007',-1.285,-6.027,-4.742,3.655,1.728,-5.383,2.687,2.331,2.336,1.913,2.009,1.944,0.16,-3.094,-0.079
'0:01.008',-1.284,-6.026,-4.74,3.655,1.728,-5.383,2.688,2.332,2.338,1.915,2.006,1.944,0.16,-3.098,-0.08
'0:01.009',-1.285,-6.026,-4.74,3.655,1.728,-5.383,2.687,2.33,2.338,1.917,2.005,1.944,0.162,-3.098,-0.082
'0:01.010',-1.284,-6.024,-4.74,3.654,1.728,-5.383,2.687,2.329,2.339,1.917,2.005,1.942,0.162,-3.099,-0.082
'0:01.011',-1.284,-6.024,-4.74,3.654,1.728,-5.382,2.687,2.33,2.341,1.919,2.005,1.942,0.161,-3.102,-0.081
'0:01.012',-1.296,-6.026,-4.729,3.66,1.716,-5.378,2.689,2.333,2.342,1.923,2.009,1.942,0.159,-3.095,-0.082
'0:01.013',-1.306,-6.03,-4.724,3.667,1.709,-5.377,2.69,2.333,2.344,1.923,2.012,1.943,0.159,-3.091,-0.083
'0:01.014',-1.294,-6.03,-4.736,3.662,1.72,-5.383,2.685,2.325,2.337,1.918,2.01,1.943,0.161,-3.102,-0.082
'0:01.015',-1.286,-6.03,-4.744,3.658,1.729,-5.387,2.684,2.325,2.333,1.914,2.007,1.943,0.161,-3.102,-0.077
'0:01.016',-1.284,-6.029,-4.744,3.656,1.73,-5.386,2.683,2.325,2.333,1.913,2.006,1.943,0.161,-3.1,-0.077
'0:01.017',-1.288,-6.026,-4.738,3.656,1.725,-5.381,2.683,2.324,2.336,1.913,2.007,1.942,0.16,-3.101,-0.077
'0:01.018',-1.285,-6.026,-4.739,3.655,1.727,-5.382,2.686,2.328,2.339,1.915,2.011,1.943,0.16,-3.095,-0.083
'0:01.019',-1.278,-6.027,-4.748,3.651,1.736,-5.387,2.683,2.325,2.335,1.91,2.008,1.941,0.162,-3.099,-0.083
'0:01.020',-1.284,-6.031,-4.747,3.656,1.732,-5.388,2.684,2.329,2.338,1.911,2.009,1.944,0.162,-3.103,-0.08
'0:01.021',-1.296,-6.031,-4.736,3.663,1.72,-5.383,2.692,2.337,2.346,1.919,2.014,1.946,0.162,-3.102,-0.084
'0:01.022',-1.298,-6.03,-4.731,3.663,1.716,-5.38,2.693,2.34,2.349,1.921,2.014,1.946,0.162,-3.099,-0.085
'0:01.023',-1.29,-6.022,-4.731,3.656,1.72,-5.377,2.689,2.336,2.345,1.917,2.011,1.946,0.163,-3.09,-0.084
'0:01.024',-1.282,-6.011,-4.728,3.646,1.723,-5.369,2.683,2.333,2.342,1.915,2.01,1.944,0.164,-3.084,-0.081
'0:01.025',-1.28,-6.013,-4.731,3.647,1.725,-5.372,2.682,2.335,2.344,1.916,2.01,1.943,0.164,-3.093,-0.084
'0:01.026',-1.286,-6.016,-4.73,3.651,1.722,-5.373,2.685,2.335,2.343,1.914,2.007,1.941,0.161,-3.095,-0.086
'0:01.027',-1.289,-6.019,-4.729,3.654,1.72,-5.374,2.686,2.334,2.343,1.913,2.006,1.941,0.159,-3.091,-0.083
'0:01.028',-1.282,-6.021,-4.737,3.651,1.727,-5.378,2.684,2.338,2.346,1.917,2.013,1.948,0.164,-3.099,-0.081
'0:01.029',-1.28,-6.019,-4.739,3.648,1.73,-5.378,2.684,2.339,2.348,1.921,2.017,1.952,0.168,-3.103,-0.084
'0:01.030',-1.284,-6.015,-4.729,3.65,1.722,-5.372,2.688,2.338,2.348,1.921,2.014,1.952,0.166,-3.095,-0.088
'0:01.031',-1.286,-6.018,-4.731,3.651,1.722,-5.375,2.69,2.341,2.349,1.922,2.014,1.949,0.162,-3.094,-0.09
'0:01.032',-1.285,-6.027,-4.741,3.655,1.728,-5.383,2.692,2.342,2.351,1.922,2.017,1.949,0.165,-3.11,-0.09
'0:01.033',-1.29,-6.032,-4.742,3.66,1.726,-5.386,2.693,2.342,2.352,1.92,2.016,1.95,0.166,-3.11,-0.087
'0:01.034',-1.284,-6.024,-4.739,3.654,1.728,-5.381,2.689,2.342,2.352,1.923,2.016,1.948,0.165,-3.095,-0.087
'0:01.035',-1.277,-6.014,-4.737,3.645,1.73,-5.375,2.686,2.34,2.353,1.923,2.016,1.946,0.165,-3.089,-0.086
'0:01.036',-1.278,-6.016,-4.737,3.647,1.729,-5.376,2.684,2.34,2.354,1.923,2.015,1.945,0.169,-3.093,-0.093
'0:01.037',-1.273,-6.014,-4.74,3.643,1.734,-5.377,2.683,2.344,2.357,1.927,2.017,1.946,0.172,-3.094,-0.091
'0:01.038',-1.274,-6.008,-4.734,3.64,1.73,-5.372,2.684,2.349,2.361,1.929,2.018,1.948,0.171,-3.083,-0.084
'0:01.039',-1.278,-6.008,-4.729,3.643,1.725,-5.368,2.686,2.35,2.365,1.933,2.019,1.948,0.172,-3.087,-0.092
'0:01.040',-1.275,-6.019,-4.743,3.647,1.734,-5.38,2.682,2.349,2.364,1.932,2.018,1.946,0.172,-3.106,-0.095
'0:01.041',-1.278,-6.018,-4.739,3.647,1.73,-5.378,2.683,2.349,2.366,1.934,2.019,1.946,0.17,-3.101,-0.096
'0:01.042',-1.285,-6.018,-4.732,3.651,1.724,-5.375,2.69,2.352,2.369,1.938,2.022,1.95,0.17,-3.094,-0.093
'0:01.043',-1.286,-6.019,-4.732,3.651,1.724,-5.375,2.692,2.351,2.368,1.938,2.022,1.949,0.17,-3.095,-0.091
'0:01.044',-1.284,-6.013,-4.729,3.648,1.722,-5.371,2.69,2.349,2.365,1.935,2.021,1.948,0.17,-3.095,-0.093
'0:01.045',-1.278,-6.016,-4.738,3.647,1.73,-5.377,2.683,2.342,2.357,1.929,2.014,1.946,0.171,-3.099,-0.087
'0:01.046',-1.28,-6.008,-4.728,3.644,1.723,-5.367,2.686,2.344,2.359,1.929,2.014,1.945,0.17,-3.088,-0.088
'0:01.047',-1.286,-6.013,-4.726,3.649,1.719,-5.369,2.687,2.346,2.358,1.929,2.015,1.945,0.169,-3.092,-0.084
'0:01.048',-1.282,-6.02,-4.737,3.651,1.727,-5.378,2.683,2.34,2.352,1.924,2.013,1.942,0.168,-3.108,-0.086
'0:01.049',-1.275,-6.013,-4.737,3.643,1.731,-5.375,2.685,2.344,2.356,1.927,2.018,1.947,0.17,-3.104,-0.094
'0:01.050',-1.274,-6.013,-4.737,3.643,1.731,-5.375,2.688,2.348,2.358,1.929,2.019,1.948,0.17,-3.096,-0.092
'0:01.051',-1.276,-6.008,-4.731,3.642,1.727,-5.37,2.691,2.349,2.361,1.931,2.017,1.947,0.167,-3.088,-0.092
'0:01.052',-1.277,-6.011,-4.733,3.643,1.728,-5.372,2.689,2.348,2.359,1.929,2.014,1.946,0.168,-3.096,-0.092
'0:01.053',-1.275,-6.016,-4.74,3.645,1.732,-5.378,2.689,2.346,2.357,1.927,2.013,1.946,0.17,-3.102,-0.091
'0:01.054',-1.278,-6.021,-4.742,3.649,1.731,-5.38,2.692,2.349,2.357,1.927,2.014,1.944,0.168,-3.104,-0.091
'0:01.055',-1.283,-6.016,-4.732,3.649,1.724,-5.374,2.688,2.344,2.355,1.925,2.013,1.942,0.168,-3.103,-0.091
'0:01.056',-1.282,-6.013,-4.731,3.647,1.724,-5.372,2.688,2.342,2.355,1.928,2.015,1.944,0.171,-3.094,-0.088
'0:01.057',-1.287,-6.018,-4.731,3.652,1.722,-5.375,2.691,2.348,2.357,1.93,2.017,1.946,0.17,-3.091,-0.091
'0:01.058',-1.284,-6.013,-4.727,3.648,1.721,-5.37,2.691,2.349,2.355,1.927,2.013,1.944,0.168,-3.092,-0.095
'0:01.059',-1.276,-6.012,-4.736,3.643,1.73,-5.373,2.683,2.338,2.347,1.92,2.007,1.942,0.171,-3.099,-0.084
'0:01.060',-1.272,-6.014,-4.742,3.643,1.734,-5.378,2.68,2.335,2.348,1.921,2.01,1.946,0.173,-3.098,-0.08
'0:01.061',-1.278,-6.014,-4.735,3.646,1.728,-5.375,2.689,2.346,2.357,1.929,2.014,1.948,0.171,-3.09,-0.085
'0:01.062',-1.278,-6.009,-4.731,3.643,1.726,-5.37,2.692,2.352,2.361,1.933,2.018,1.948,0.172,-3.086,-0.088
'0:01.063',-1.274,-6.013,-4.737,3.643,1.731,-5.375,2.691,2.353,2.362,1.933,2.018,1.948,0.174,-3.094,-0.086
'0:01.064',-1.28,-6.015,-4.734,3.647,1.726,-5.375,2.687,2.349,2.361,1.931,2.015,1.944,0.172,-3.095,-0.086
'0:01.065',-1.282,-6.014,-4.731,3.647,1.724,-5.372,2.686,2.346,2.361,1.933,2.018,1.946,0.172,-3.1,-0.091
'0:01.066',-1.281,-6.013,-4.731,3.647,1.725,-5.372,2.686,2.35,2.362,1.933,2.018,1.946,0.172,-3.104,-0.092
'0:01.067',-1.282,-6.011,-4.729,3.646,1.724,-5.37,2.684,2.353,2.363,1.934,2.017,1.943,0.172,-3.106,-0.095
'0:01.068',-1.284,-6.016,-4.731,3.649,1.724,-5.372,2.685,2.352,2.362,1.935,2.017,1.942,0.171,-3.108,-0.095
'0:01.069',-1.275,-6.009,-4.734,3.642,1.729,-5.371,2.682,2.346,2.36,1.931,2.016,1.944,0.172,-3.091,-0.09
'0:01.070',-1.266,-6.011,-4.744,3.638,1.739,-5.377,2.681,2.345,2.357,1.927,2.011,1.942,0.173,-3.103,-0.093
'0:01.071',-1.266,-6.008,-4.742,3.637,1.738,-5.375,2.679,2.341,2.354,1.923,2.009,1.94,0.174,-3.109,-0.088
'0:01.072',-1.27,-6.002,-4.731,3.635,1.73,-5.366,2.677,2.341,2.353,1.923,2.009,1.941,0.174,-3.09,-0.083
'0:01.073',-1.278,-6.004,-4.726,3.64,1.724,-5.364,2.683,2.347,2.357,1.927,2.012,1.942,0.172,-3.085,-0.087
'0:01.074',-1.278,-6.005,-4.726,3.642,1.724,-5.365,2.684,2.349,2.358,1.929,2.014,1.944,0.173,-3.086,-0.088
'0:01.075',-1.273,-6.007,-4.734,3.639,1.73,-5.37,2.679,2.345,2.353,1.925,2.012,1.942,0.172,-3.091,-0.085
'0:01.076',-1.278,-6.011,-4.732,3.644,1.726,-5.371,2.679,2.342,2.352,1.922,2.01,1.938,0.168,-3.097,-0.085
'0:01.077',-1.28,-6.011,-4.731,3.646,1.724,-5.37,2.68,2.344,2.353,1.921,2.012,1.938,0.168,-3.103,-0.085
'0:01.078',-1.276,-6.008,-4.731,3.642,1.726,-5.369,2.683,2.345,2.354,1.923,2.011,1.94,0.171,-3.092,-0.082
'0:01.079',-1.278,-6.005,-4.728,3.642,1.724,-5.367,2.683,2.346,2.357,1.925,2.01,1.938,0.169,-3.09,-0.085
'0:01.080',-1.27,-6.005,-4.734,3.638,1.731,-5.369,2.679,2.345,2.356,1.926,2.01,1.939,0.169,-3.093,-0.085
'0:01.081',-1.267,-6.005,-4.737,3.636,1.734,-5.37,2.68,2.344,2.351,1.923,2.008,1.937,0.168,-3.099,-0.089
'0:01.082',-1.273,-6.006,-4.732,3.639,1.73,-5.369,2.684,2.345,2.35,1.923,2.01,1.937,0.168,-3.107,-0.091
'0:01.083',-1.282,-6.005,-4.722,3.643,1.72,-5.363,2.686,2.345,2.349,1.923,2.011,1.938,0.167,-3.098,-0.089
'0:01.084',-1.28,-6.003,-4.723,3.642,1.721,-5.363,2.682,2.341,2.343,1.917,2.006,1.937,0.168,-3.09,-0.086
'0:01.085',-1.276,-6.005,-4.729,3.64,1.726,-5.367,2.68,2.342,2.344,1.919,2.009,1.94,0.169,-3.091,-0.086
'0:01.086',-1.278,-6.008,-4.73,3.643,1.726,-5.369,2.682,2.344,2.344,1.92,2.01,1.939,0.167,-3.103,-0.089
'0:01.087',-1.272,-6.01,-4.737,3.64,1.732,-5.373,2.68,2.341,2.342,1.919,2.011,1.94,0.17,-3.103,-0.086
'0:01.088',-1.272,-6.011,-4.739,3.641,1.733,-5.375,2.683,2.346,2.347,1.924,2.011,1.942,0.17,-3.102,-0.088
'0:01.089',-1.27,-6.008,-4.737,3.639,1.734,-5.372,2.688,2.352,2.352,1.929,2.015,1.946,0.174,-3.094,-0.087
'0:01.090',-1.272,-6.003,-4.731,3.638,1.729,-5.367,2.688,2.356,2.354,1.931,2.018,1.946,0.175,-3.084,-0.087
'0:01.091',-1.275,-6.008,-4.732,3.642,1.728,-5.37,2.688,2.352,2.351,1.929,2.018,1.946,0.173,-3.092,-0.091
'0:01.092',-1.278,-6.011,-4.734,3.644,1.728,-5.372,2.688,2.348,2.349,1.927,2.018,1.948,0.174,-3.092,-0.09
'0:01.093',-1.28,-6.013,-4.732,3.646,1.726,-5.372,2.686,2.345,2.348,1.927,2.018,1.948,0.173,-3.092,-0.089
'0:01.094',-1.278,-6.014,-4.736,3.646,1.729,-5.375,2.683,2.341,2.345,1.925,2.022,1.949,0.174,-3.09,-0.081
'0:01.095',-1.282,-6.011,-4.729,3.646,1.724,-5.37,2.681,2.342,2.341,1.921,2.015,1.948,0.173,-3.089,-0.082
'0:01.096',-1.277,-6.011,-4.734,3.644,1.728,-5.372,2.68,2.34,2.339,1.917,2.011,1.948,0.172,-3.096,-0.086
'0:01.097',-1.276,-6.016,-4.739,3.646,1.732,-5.378,2.682,2.339,2.338,1.917,2.011,1.946,0.172,-3.096,-0.085
'0:01.098',-1.278,-6.016,-4.737,3.647,1.729,-5.377,2.681,2.341,2.339,1.915,2.009,1.944,0.171,-3.092,-0.081
'0:01.099',-1.274,-6.016,-4.742,3.644,1.734,-5.378,2.68,2.337,2.337,1.913,2.009,1.945,0.175,-3.099,-0.082
'0:01.100',-1.266,-6.013,-4.747,3.639,1.74,-5.38,2.679,2.335,2.336,1.911,2.007,1.946,0.176,-3.097,-0.082
'0:01.101',-1.258,-6.006,-4.747,3.632,1.744,-5.377,2.677,2.332,2.336,1.911,2.007,1.947,0.177,-3.078,-0.075
'0:01.102',-1.27,-6.008,-4.737,3.639,1.734,-5.372,2.679,2.33,2.336,1.915,2.009,1.948,0.176,-3.082,-0.077
'0:01.103',-1.284,-6.013,-4.727,3.648,1.721,-5.37,2.687,2.338,2.341,1.917,2.005,1.944,0.17,-3.092,-0.084
'0:01.104',-1.278,-6.01,-4.731,3.643,1.726,-5.37,2.684,2.335,2.34,1.915,2.003,1.944,0.172,-3.09,-0.083
'0:01.105',-1.272,-6.013,-4.74,3.642,1.734,-5.377,2.679,2.331,2.334,1.912,2.005,1.944,0.174,-3.091,-0.075
'0:01.106',-1.273,-6.011,-4.737,3.641,1.732,-5.373,2.682,2.331,2.334,1.912,2.003,1.943,0.171,-3.094,-0.079
'0:01.107',-1.27,-6.007,-4.737,3.638,1.734,-5.372,2.682,2.329,2.333,1.911,2.002,1.944,0.172,-3.094,-0.079
'0:01.108',-1.274,-6.011,-4.736,3.642,1.73,-5.373,2.683,2.328,2.329,1.907,2.002,1.943,0.17,-3.092,-0.074
'0:01.109',-1.28,-6.008,-4.728,3.643,1.724,-5.367,2.682,2.326,2.328,1.907,2.001,1.941,0.167,-3.093,-0.08
'0:01.110',-1.28,-6.004,-4.723,3.642,1.721,-5.363,2.682,2.325,2.328,1.905,2,1.938,0.166,-3.088,-0.077
'0:01.111',-1.282,-6.013,-4.73,3.647,1.724,-5.371,2.683,2.326,2.329,1.905,1.999,1.937,0.163,-3.089,-0.077
'0:01.112',-1.276,-6.018,-4.742,3.647,1.732,-5.38,2.681,2.328,2.329,1.902,1.996,1.935,0.164,-3.102,-0.079
'0:01.113',-1.275,-6.014,-4.738,3.644,1.732,-5.376,2.68,2.327,2.326,1.899,1.992,1.934,0.163,-3.099,-0.074
'0:01.114',-1.278,-6.013,-4.734,3.644,1.728,-5.373,2.679,2.324,2.324,1.897,1.992,1.934,0.162,-3.096,-0.074
'0:01.115',-1.278,-6.018,-4.739,3.647,1.73,-5.378,2.679,2.322,2.321,1.895,1.993,1.935,0.163,-3.099,-0.074
'0:01.116',-1.283,-6.02,-4.737,3.651,1.726,-5.378,2.678,2.323,2.32,1.893,1.99,1.932,0.159,-3.098,-0.074
'0:01.117',-1.286,-6.014,-4.729,3.65,1.721,-5.371,2.679,2.325,2.325,1.897,1.994,1.933,0.158,-3.088,-0.076
'0:01.118',-1.286,-6.013,-4.727,3.649,1.72,-5.37,2.678,2.321,2.324,1.895,1.996,1.933,0.159,-3.087,-0.078
'0:01.119',-1.284,-6.013,-4.728,3.647,1.722,-5.37,2.676,2.321,2.321,1.893,1.992,1.931,0.16,-3.091,-0.077
'0:01.120',-1.282,-6.012,-4.731,3.646,1.724,-5.371,2.676,2.322,2.322,1.893,1.991,1.933,0.161,-3.09,-0.072
'0:01.121',-1.279,-6.013,-4.733,3.645,1.727,-5.372,2.671,2.318,2.318,1.891,1.99,1.932,0.16,-3.092,-0.074
'0:01.122',-1.28,-6.01,-4.73,3.644,1.724,-5.37,2.674,2.318,2.318,1.893,1.991,1.931,0.16,-3.087,-0.075
'0:01.123',-1.286,-6.019,-4.734,3.652,1.724,-5.377,2.676,2.319,2.318,1.893,1.987,1.929,0.157,-3.088,-0.073
'0:01.124',-1.286,-6.02,-4.734,3.652,1.724,-5.377,2.677,2.321,2.318,1.891,1.985,1.929,0.155,-3.087,-0.074
'0:01.125',-1.284,-6.016,-4.731,3.65,1.723,-5.373,2.675,2.32,2.32,1.893,1.99,1.933,0.158,-3.087,-0.072
'0:01.126',-1.286,-6.013,-4.726,3.648,1.72,-5.37,2.672,2.315,2.317,1.891,1.99,1.931,0.157,-3.087,-0.072
'0:01.127',-1.282,-6.006,-4.724,3.643,1.721,-5.365,2.672,2.313,2.314,1.884,1.984,1.925,0.153,-3.082,-0.072
'0:01.128',-1.276,-6.006,-4.729,3.641,1.726,-5.367,2.67,2.312,2.311,1.881,1.982,1.926,0.156,-3.084,-0.072
'0:01.129',-1.273,-6.006,-4.733,3.639,1.73,-5.37,2.667,2.313,2.313,1.881,1.982,1.927,0.157,-3.086,-0.072
'0:01.130',-1.275,-6.009,-4.734,3.642,1.729,-5.371,2.671,2.316,2.314,1.883,1.984,1.927,0.155,-3.083,-0.071
'0:01.131',-1.286,-6.01,-4.724,3.647,1.719,-5.367,2.675,2.316,2.312,1.883,1.984,1.927,0.153,-3.082,-0.069
'0:01.132',-1.29,-6.013,-4.723,3.651,1.716,-5.368,2.674,2.314,2.309,1.881,1.982,1.923,0.151,-3.087,-0.068
'0:01.133',-1.29,-6.011,-4.721,3.65,1.716,-5.366,2.675,2.315,2.31,1.881,1.986,1.923,0.152,-3.086,-0.071
'0:01.134',-1.289,-6.005,-4.716,3.647,1.714,-5.361,2.675,2.316,2.312,1.883,1.989,1.926,0.154,-3.085,-0.07
'0:01.135',-1.286,-6.011,-4.724,3.648,1.718,-5.367,2.672,2.312,2.308,1.877,1.986,1.925,0.154,-3.09,-0.064
'0:01.136',-1.286,-6.007,-4.721,3.646,1.718,-5.364,2.675,2.314,2.309,1.878,1.986,1.927,0.153,-3.083,-0.068
'0:01.137',-1.286,-6.005,-4.718,3.645,1.716,-5.361,2.677,2.32,2.312,1.883,1.988,1.927,0.153,-3.083,-0.07
