'Elapsed time','i','ii','iii','avr','avl','avf','v1','v2','v3','v4','v5','v6','vx','vy','vz'
'seconds','mV','mV','mV','mV','mV','mV','mV','mV','mV','mV','mV','mV','mV','mV','mV'
0,0.351,0.684,0.334,-0.517,0.009,0.509,1.012,0.54,0.625,3.042,0.54,0.117,-0.101,0.055,0.301
0.001,0.342,0.682,0.34,-0.512,0.001,0.511,1.015,0.537,0.623,3.034,0.534,0.112,-0.104,0.059,0.299
0.002,0.335,0.679,0.345,-0.507,-0.005,0.512,1.014,0.537,0.625,3.034,0.536,0.113,-0.103,0.063,0.301
0.003,0.335,0.681,0.347,-0.508,-0.007,0.515,1.022,0.538,0.627,3.037,0.538,0.117,-0.103,0.06,0.301
0.004,0.341,0.681,0.34,-0.511,0.001,0.511,1.024,0.539,0.629,3.042,0.54,0.121,-0.102,0.054,0.3
0.005,0.35,0.681,0.331,-0.516,0.01,0.506,1.024,0.558,0.632,3.043,0.538,0.124,-0.101,0.048,0.303
0.006,0.343,0.682,0.339,-0.512,0.002,0.511,1.028,0.547,0.634,3.047,0.541,0.127,-0.104,0.05,0.298
0.007,0.343,0.682,0.339,-0.512,0.002,0.511,1.03,0.54,0.639,3.051,0.545,0.129,-0.105,0.054,0.294
0.008,0.346,0.679,0.334,-0.512,0.006,0.507,1.024,0.55,0.64,3.05,0.543,0.128,-0.103,0.05,0.297
0.009,0.344,0.672,0.328,-0.508,0.008,0.501,1.022,0.568,0.668,3.066,0.553,0.133,-0.093,0.042,0.296
0.01,0.33,0.672,0.342,-0.501,-0.006,0.507,1.025,0.555,0.643,3.053,0.543,0.128,-0.102,0.042,0.301
0.011,0.322,0.675,0.353,-0.498,-0.015,0.514,1.028,0.533,0.615,3.04,0.534,0.124,-0.112,0.042,0.305
0.012,0.341,0.679,0.338,-0.51,0.002,0.509,1.03,0.551,0.638,3.056,0.544,0.133,-0.104,0.041,0.301
0.013,0.344,0.682,0.339,-0.513,0.003,0.511,1.026,0.549,0.636,3.055,0.543,0.131,-0.103,0.048,0.301
0.014,0.341,0.685,0.345,-0.513,-0.002,0.515,1.026,0.55,0.64,3.055,0.543,0.128,-0.102,0.057,0.299
0.015,0.34,0.686,0.347,-0.513,-0.004,0.517,1.023,0.549,0.637,3.053,0.543,0.126,-0.102,0.058,0.299
0.016,0.341,0.688,0.347,-0.514,-0.004,0.518,1.024,0.544,0.63,3.047,0.539,0.124,-0.102,0.056,0.3
0.017,0.344,0.69,0.345,-0.517,-0.001,0.518,1.022,0.546,0.635,3.049,0.541,0.126,-0.101,0.053,0.3
0.018,0.343,0.686,0.343,-0.514,0,0.515,1.018,0.544,0.634,3.049,0.544,0.126,-0.1,0.051,0.302
0.019,0.342,0.684,0.342,-0.513,0,0.513,1.02,0.543,0.632,3.048,0.541,0.124,-0.101,0.056,0.301
0.02,0.345,0.685,0.34,-0.515,0.003,0.513,1.022,0.542,0.632,3.045,0.54,0.122,-0.103,0.057,0.3
0.021,0.346,0.69,0.343,-0.518,0.002,0.517,1.022,0.543,0.631,3.039,0.541,0.121,-0.102,0.061,0.3
0.022,0.346,0.69,0.344,-0.518,0.002,0.517,1.016,0.542,0.63,3.04,0.54,0.12,-0.101,0.062,0.3
0.023,0.346,0.69,0.343,-0.518,0.002,0.517,1.018,0.542,0.63,3.042,0.54,0.12,-0.102,0.058,0.302
0.024,0.344,0.687,0.343,-0.515,0.001,0.515,1.024,0.545,0.632,3.046,0.544,0.123,-0.102,0.054,0.302
0.025,0.347,0.692,0.344,-0.52,0.002,0.519,1.027,0.545,0.632,3.047,0.544,0.126,-0.102,0.053,0.301
0.026,0.349,0.695,0.345,-0.521,0.002,0.52,1.026,0.543,0.634,3.052,0.547,0.13,-0.101,0.056,0.299
0.027,0.348,0.688,0.34,-0.518,0.004,0.515,1.026,0.546,0.633,3.054,0.55,0.13,-0.1,0.05,0.297
0.028,0.346,0.688,0.342,-0.517,0.003,0.515,1.026,0.547,0.63,3.05,0.545,0.126,-0.102,0.05,0.298
0.029,0.349,0.691,0.342,-0.52,0.004,0.517,1.031,0.554,0.64,3.059,0.552,0.132,-0.1,0.051,0.296
0.03,0.351,0.694,0.343,-0.522,0.004,0.518,1.032,0.557,0.642,3.062,0.556,0.135,-0.099,0.046,0.297
0.031,0.344,0.69,0.345,-0.517,-0.001,0.518,1.033,0.555,0.638,3.06,0.552,0.134,-0.102,0.046,0.298
0.032,0.343,0.686,0.344,-0.514,-0.001,0.515,1.04,0.562,0.643,3.063,0.551,0.133,-0.102,0.042,0.296
0.033,0.343,0.683,0.341,-0.513,0.001,0.512,1.034,0.565,0.644,3.061,0.549,0.129,-0.102,0.042,0.293
0.034,0.347,0.684,0.338,-0.515,0.004,0.511,1.032,0.565,0.643,3.057,0.547,0.125,-0.101,0.044,0.289
0.035,0.351,0.683,0.333,-0.517,0.009,0.509,1.036,0.573,0.649,3.058,0.55,0.127,-0.098,0.043,0.288
0.036,0.349,0.677,0.328,-0.513,0.011,0.502,1.038,0.582,0.657,3.063,0.556,0.13,-0.093,0.037,0.287
0.037,0.363,0.674,0.311,-0.518,0.025,0.493,1.042,0.598,0.667,3.069,0.562,0.13,-0.087,0.026,0.282
0.038,0.368,0.663,0.294,-0.516,0.037,0.479,1.044,0.612,0.68,3.075,0.566,0.131,-0.084,0.019,0.275
0.039,0.366,0.657,0.291,-0.512,0.037,0.475,1.044,0.618,0.687,3.08,0.569,0.131,-0.082,0.013,0.27
0.04,0.37,0.656,0.285,-0.513,0.043,0.471,1.043,0.624,0.692,3.083,0.571,0.129,-0.079,0.013,0.264
0.041,0.374,0.66,0.286,-0.517,0.044,0.473,1.042,0.629,0.696,3.083,0.572,0.126,-0.076,0.021,0.259
0.042,0.383,0.67,0.287,-0.526,0.048,0.479,1.042,0.633,0.704,3.088,0.578,0.128,-0.071,0.029,0.256
0.043,0.388,0.673,0.286,-0.53,0.051,0.48,1.036,0.628,0.706,3.09,0.578,0.129,-0.07,0.026,0.256
0.044,0.382,0.677,0.295,-0.529,0.043,0.486,1.036,0.632,0.706,3.092,0.575,0.127,-0.075,0.024,0.251
0.045,0.383,0.691,0.308,-0.537,0.037,0.5,1.036,0.632,0.716,3.107,0.586,0.135,-0.07,0.033,0.246
0.046,0.393,0.712,0.319,-0.552,0.037,0.515,1.028,0.627,0.721,3.116,0.597,0.145,-0.06,0.04,0.246
0.047,0.399,0.724,0.326,-0.561,0.036,0.525,1.024,0.629,0.727,3.125,0.605,0.151,-0.055,0.051,0.242
0.048,0.404,0.745,0.341,-0.574,0.031,0.543,1.016,0.621,0.732,3.139,0.62,0.163,-0.044,0.074,0.241
0.049,0.405,0.766,0.36,-0.586,0.022,0.564,1.011,0.616,0.735,3.147,0.628,0.174,-0.035,0.091,0.24
0.05,0.408,0.774,0.365,-0.591,0.021,0.57,1.01,0.619,0.738,3.156,0.636,0.187,-0.022,0.091,0.239
0.051,0.422,0.776,0.354,-0.6,0.035,0.566,1.004,0.626,0.751,3.179,0.658,0.209,0.001,0.081,0.239
0.052,0.44,0.773,0.334,-0.606,0.053,0.554,0.996,0.636,0.771,3.208,0.69,0.236,0.029,0.07,0.235
0.053,0.461,0.768,0.307,-0.614,0.077,0.538,0.99,0.654,0.796,3.235,0.72,0.259,0.056,0.059,0.23
0.054,0.481,0.774,0.293,-0.627,0.094,0.534,0.985,0.673,0.831,3.273,0.757,0.283,0.087,0.062,0.218
0.055,0.496,0.783,0.286,-0.639,0.105,0.535,0.981,0.696,0.876,3.32,0.802,0.311,0.118,0.063,0.203
0.056,0.524,0.785,0.262,-0.654,0.132,0.524,0.978,0.734,0.934,3.377,0.856,0.346,0.159,0.053,0.191
0.057,0.556,0.789,0.234,-0.672,0.162,0.512,0.963,0.761,0.993,3.444,0.922,0.394,0.211,0.053,0.181
0.058,0.579,0.79,0.212,-0.684,0.183,0.502,0.955,0.785,1.044,3.502,0.979,0.44,0.259,0.054,0.173
0.059,0.608,0.784,0.177,-0.696,0.215,0.481,0.947,0.822,1.101,3.558,1.032,0.485,0.307,0.045,0.161
0.06,0.643,0.796,0.152,-0.719,0.245,0.475,0.942,0.862,1.171,3.631,1.103,0.537,0.364,0.059,0.138
0.061,0.673,0.816,0.142,-0.744,0.266,0.48,0.946,0.91,1.25,3.705,1.173,0.591,0.416,0.067,0.112
0.062,0.696,0.829,0.134,-0.762,0.281,0.482,0.945,0.949,1.311,3.769,1.236,0.637,0.461,0.068,0.093
0.063,0.72,0.847,0.127,-0.783,0.296,0.487,0.944,0.972,1.359,3.834,1.3,0.695,0.511,0.093,0.084
0.064,0.729,0.87,0.141,-0.799,0.294,0.506,0.947,0.985,1.391,3.89,1.357,0.746,0.55,0.124,0.07
0.065,0.738,0.916,0.178,-0.827,0.28,0.548,0.938,0.981,1.423,3.955,1.425,0.801,0.595,0.17,0.061
0.066,0.746,0.975,0.23,-0.86,0.258,0.603,0.918,0.95,1.433,4.008,1.484,0.86,0.636,0.232,0.062
0.067,0.732,1.032,0.3,-0.881,0.216,0.666,0.911,0.899,1.408,4.042,1.53,0.907,0.661,0.303,0.067
0.068,0.733,1.111,0.379,-0.921,0.176,0.746,0.882,0.806,1.364,4.085,1.596,0.979,0.707,0.39,0.098
0.069,0.722,1.188,0.466,-0.955,0.128,0.828,0.844,0.696,1.296,4.101,1.631,1.026,0.73,0.469,0.139
0.07,0.708,1.258,0.55,-0.982,0.079,0.904,0.81,0.597,1.234,4.113,1.657,1.063,0.748,0.541,0.173
0.071,0.681,1.333,0.652,-1.006,0.015,0.994,0.779,0.492,1.171,4.122,1.681,1.1,0.759,0.631,0.209
0.072,0.636,1.389,0.752,-1.012,-0.058,1.071,0.767,0.406,1.099,4.114,1.685,1.121,0.753,0.702,0.245
0.073,0.593,1.419,0.827,-1.006,-0.117,1.124,0.768,0.345,1.026,4.091,1.681,1.129,0.743,0.75,0.274
0.074,0.549,1.426,0.876,-0.988,-0.164,1.152,0.781,0.315,0.994,4.096,1.696,1.133,0.735,0.781,0.279
0.075,0.496,1.448,0.952,-0.972,-0.228,1.2,0.785,0.249,0.933,4.091,1.704,1.135,0.719,0.826,0.301
0.076,0.439,1.478,1.04,-0.958,-0.301,1.26,0.785,0.166,0.851,4.062,1.681,1.115,0.681,0.876,0.333
0.077,0.414,1.494,1.079,-0.954,-0.333,1.287,0.775,0.116,0.807,4.062,1.688,1.117,0.674,0.907,0.359
0.078,0.395,1.495,1.101,-0.945,-0.352,1.298,0.77,0.083,0.774,4.064,1.7,1.125,0.673,0.926,0.381
0.079,0.38,1.47,1.09,-0.924,-0.355,1.28,0.768,0.07,0.764,4.072,1.711,1.122,0.669,0.917,0.394
0.08,0.369,1.417,1.048,-0.892,-0.339,1.232,0.776,0.073,0.749,4.057,1.699,1.099,0.651,0.868,0.404
0.081,0.353,1.343,0.991,-0.848,-0.319,1.167,0.802,0.111,0.744,4.016,1.651,1.047,0.609,0.8,0.4
0.082,0.322,1.254,0.932,-0.787,-0.305,1.094,0.852,0.155,0.725,3.935,1.559,0.955,0.525,0.73,0.398
0.083,0.283,1.137,0.854,-0.71,-0.285,0.996,0.911,0.204,0.69,3.825,1.433,0.839,0.415,0.632,0.409
0.084,0.255,1.03,0.775,-0.641,-0.261,0.903,0.947,0.236,0.642,3.717,1.313,0.742,0.324,0.544,0.435
0.085,0.221,0.947,0.726,-0.583,-0.253,0.837,0.973,0.253,0.575,3.588,1.179,0.64,0.23,0.48,0.469
0.086,0.192,0.893,0.702,-0.542,-0.255,0.797,0.989,0.268,0.51,3.457,1.04,0.535,0.131,0.435,0.503
0.087,0.171,0.852,0.681,-0.511,-0.255,0.767,1,0.269,0.441,3.324,0.899,0.43,0.032,0.396,0.537
0.088,0.131,0.804,0.674,-0.468,-0.272,0.74,1.006,0.257,0.344,3.155,0.723,0.307,-0.081,0.357,0.589
0.089,0.083,0.767,0.685,-0.425,-0.301,0.727,1.017,0.245,0.231,2.958,0.517,0.167,-0.208,0.328,0.642
0.09,0.018,0.717,0.699,-0.367,-0.341,0.708,1.056,0.249,0.117,2.746,0.292,0.011,-0.361,0.288,0.67
0.091,-0.07,0.666,0.737,-0.298,-0.404,0.702,1.097,0.215,-0.031,2.51,0.048,-0.153,-0.532,0.262,0.707
0.092,-0.122,0.62,0.743,-0.249,-0.432,0.682,1.12,0.17,-0.146,2.344,-0.111,-0.255,-0.637,0.227,0.74
0.093,-0.142,0.57,0.712,-0.214,-0.427,0.641,1.134,0.15,-0.195,2.279,-0.166,-0.299,-0.674,0.185,0.751
0.094,-0.15,0.526,0.676,-0.189,-0.413,0.602,1.136,0.133,-0.228,2.24,-0.195,-0.333,-0.695,0.152,0.762
0.095,-0.143,0.496,0.639,-0.176,-0.392,0.569,1.137,0.124,-0.24,2.229,-0.202,-0.349,-0.702,0.115,0.765
0.096,-0.127,0.489,0.616,-0.181,-0.371,0.553,1.128,0.118,-0.23,2.245,-0.189,-0.349,-0.696,0.093,0.77
0.097,-0.111,0.482,0.593,-0.186,-0.351,0.538,1.119,0.102,-0.21,2.275,-0.158,-0.335,-0.673,0.073,0.762
0.098,-0.094,0.468,0.561,-0.186,-0.328,0.514,1.114,0.092,-0.189,2.307,-0.126,-0.317,-0.648,0.056,0.75
0.099,-0.078,0.454,0.531,-0.188,-0.304,0.493,1.09,0.081,-0.171,2.335,-0.095,-0.3,-0.624,0.034,0.749
0.1,-0.056,0.451,0.507,-0.198,-0.281,0.479,1.065,0.071,-0.152,2.36,-0.068,-0.287,-0.601,0.013,0.746
0.101,-0.024,0.463,0.486,-0.22,-0.255,0.475,1.04,0.072,-0.128,2.386,-0.04,-0.274,-0.576,0.01,0.745
0.102,-0.011,0.467,0.478,-0.228,-0.245,0.473,1.029,0.069,-0.107,2.409,-0.017,-0.261,-0.559,0.01,0.739
0.103,0.005,0.465,0.46,-0.235,-0.228,0.463,1.019,0.084,-0.087,2.429,0.001,-0.248,-0.545,0.005,0.742
0.104,0.029,0.461,0.431,-0.244,-0.201,0.446,1.009,0.098,-0.061,2.458,0.026,-0.229,-0.52,-0.018,0.734
0.105,0.045,0.464,0.418,-0.255,-0.187,0.442,1.017,0.106,-0.033,2.486,0.051,-0.211,-0.498,-0.032,0.715
0.106,0.061,0.469,0.408,-0.265,-0.173,0.44,1.03,0.148,0.003,2.514,0.075,-0.196,-0.478,-0.036,0.695
0.107,0.077,0.477,0.401,-0.277,-0.162,0.439,1.034,0.183,0.037,2.542,0.099,-0.181,-0.46,-0.037,0.673
0.108,0.097,0.495,0.399,-0.295,-0.151,0.447,1.016,0.195,0.069,2.571,0.127,-0.161,-0.435,-0.025,0.666
0.109,0.117,0.508,0.391,-0.312,-0.138,0.45,1.001,0.213,0.102,2.603,0.154,-0.141,-0.408,-0.021,0.657
0.11,0.141,0.518,0.378,-0.33,-0.118,0.449,0.996,0.246,0.137,2.632,0.18,-0.12,-0.384,-0.025,0.642
0.111,0.166,0.531,0.365,-0.348,-0.1,0.449,0.985,0.281,0.183,2.677,0.22,-0.092,-0.353,-0.03,0.621
0.112,0.182,0.548,0.366,-0.365,-0.092,0.458,0.978,0.315,0.228,2.716,0.254,-0.068,-0.325,-0.03,0.597
0.113,0.199,0.568,0.369,-0.384,-0.086,0.469,0.979,0.358,0.271,2.747,0.28,-0.051,-0.302,-0.014,0.571
0.114,0.222,0.593,0.37,-0.407,-0.074,0.482,0.982,0.405,0.318,2.782,0.313,-0.034,-0.279,0.005,0.536
0.115,0.246,0.617,0.37,-0.431,-0.061,0.493,0.982,0.452,0.366,2.817,0.343,-0.015,-0.252,0.019,0.505
0.116,0.266,0.633,0.367,-0.45,-0.051,0.5,0.983,0.492,0.409,2.851,0.371,0.002,-0.227,0.029,0.474
0.117,0.279,0.64,0.36,-0.46,-0.041,0.5,0.991,0.533,0.448,2.88,0.395,0.015,-0.209,0.028,0.446
0.118,0.291,0.639,0.347,-0.466,-0.028,0.494,1,0.57,0.478,2.902,0.413,0.025,-0.194,0.019,0.422
0.119,0.303,0.639,0.337,-0.471,-0.017,0.488,1.014,0.601,0.503,2.92,0.429,0.035,-0.18,0.014,0.4
0.12,0.311,0.642,0.332,-0.476,-0.011,0.487,1.027,0.628,0.527,2.936,0.445,0.043,-0.169,0.022,0.381
0.121,0.316,0.647,0.332,-0.481,-0.008,0.49,1.03,0.637,0.541,2.942,0.453,0.045,-0.161,0.029,0.367
0.122,0.323,0.652,0.33,-0.487,-0.004,0.491,1.039,0.649,0.558,2.955,0.464,0.052,-0.152,0.025,0.352
0.123,0.331,0.652,0.323,-0.491,0.004,0.488,1.044,0.664,0.578,2.973,0.479,0.065,-0.141,0.017,0.339
0.124,0.332,0.655,0.324,-0.493,0.004,0.49,1.046,0.675,0.592,2.989,0.494,0.075,-0.135,0.015,0.331
0.125,0.332,0.656,0.324,-0.494,0.004,0.49,1.048,0.686,0.606,3.002,0.504,0.085,-0.13,0.011,0.321
0.126,0.343,0.658,0.316,-0.5,0.013,0.487,1.048,0.693,0.615,3.009,0.51,0.089,-0.124,0.011,0.314
0.127,0.353,0.665,0.312,-0.509,0.02,0.489,1.052,0.703,0.627,3.02,0.52,0.096,-0.118,0.017,0.308
0.128,0.349,0.667,0.319,-0.508,0.015,0.493,1.052,0.704,0.634,3.026,0.527,0.1,-0.116,0.022,0.304
0.129,0.346,0.669,0.323,-0.508,0.012,0.496,1.052,0.698,0.64,3.034,0.531,0.104,-0.114,0.028,0.301
0.13,0.347,0.674,0.327,-0.51,0.011,0.5,1.052,0.696,0.646,3.042,0.536,0.109,-0.113,0.031,0.3
0.131,0.346,0.677,0.331,-0.511,0.008,0.504,1.054,0.692,0.647,3.045,0.539,0.113,-0.112,0.023,0.297
0.132,0.346,0.677,0.331,-0.512,0.007,0.505,1.056,0.695,0.663,3.06,0.55,0.123,-0.105,0.021,0.292
0.133,0.34,0.682,0.343,-0.511,-0.002,0.513,1.056,0.686,0.656,3.056,0.551,0.123,-0.107,0.036,0.291
0.134,0.339,0.691,0.352,-0.514,-0.006,0.522,1.056,0.672,0.645,3.044,0.544,0.116,-0.11,0.048,0.292
0.135,0.351,0.7,0.348,-0.525,0.002,0.524,1.056,0.673,0.656,3.049,0.546,0.119,-0.106,0.051,0.289
0.136,0.356,0.705,0.349,-0.53,0.004,0.527,1.058,0.667,0.658,3.053,0.553,0.127,-0.102,0.051,0.287
0.137,0.353,0.705,0.351,-0.529,0.001,0.528,1.056,0.664,0.66,3.056,0.555,0.127,-0.099,0.052,0.286
0.138,0.347,0.706,0.358,-0.526,-0.005,0.532,1.056,0.663,0.661,3.057,0.556,0.128,-0.101,0.056,0.283
0.139,0.345,0.708,0.362,-0.526,-0.009,0.535,1.052,0.656,0.66,3.057,0.558,0.13,-0.097,0.061,0.282
0.14,0.354,0.713,0.358,-0.533,-0.003,0.536,1.046,0.65,0.659,3.056,0.559,0.129,-0.093,0.067,0.282
0.141,0.36,0.719,0.358,-0.539,0.001,0.539,1.041,0.639,0.658,3.054,0.56,0.126,-0.092,0.075,0.281
0.142,0.364,0.719,0.354,-0.541,0.004,0.537,1.038,0.627,0.653,3.05,0.559,0.124,-0.091,0.079,0.281
0.143,0.363,0.716,0.352,-0.539,0.005,0.534,1.033,0.62,0.655,3.054,0.563,0.128,-0.091,0.075,0.281
0.144,0.364,0.72,0.355,-0.542,0.004,0.538,1.024,0.614,0.661,3.061,0.568,0.133,-0.09,0.076,0.281
0.145,0.371,0.728,0.356,-0.549,0.007,0.542,1.036,0.613,0.665,3.067,0.574,0.138,-0.087,0.079,0.279
0.146,0.372,0.731,0.358,-0.551,0.006,0.545,1.041,0.612,0.672,3.071,0.58,0.141,-0.086,0.08,0.277
0.147,0.367,0.73,0.362,-0.548,0.002,0.546,1.041,0.607,0.672,3.074,0.581,0.146,-0.086,0.081,0.276
0.148,0.369,0.733,0.363,-0.551,0.003,0.548,1.041,0.606,0.676,3.077,0.586,0.149,-0.086,0.077,0.275
0.149,0.37,0.736,0.365,-0.553,0.003,0.551,1.034,0.605,0.675,3.076,0.585,0.149,-0.083,0.08,0.277
0.15,0.373,0.736,0.362,-0.554,0.005,0.549,1.034,0.604,0.677,3.08,0.588,0.152,-0.08,0.079,0.277
0.151,0.375,0.731,0.355,-0.552,0.009,0.543,1.034,0.605,0.681,3.086,0.591,0.155,-0.081,0.067,0.276
0.152,0.374,0.73,0.356,-0.552,0.009,0.543,1.036,0.606,0.68,3.086,0.59,0.157,-0.08,0.066,0.275
0.153,0.378,0.737,0.359,-0.557,0.009,0.549,1.035,0.608,0.69,3.091,0.596,0.158,-0.075,0.081,0.272
0.154,0.372,0.74,0.367,-0.556,0.003,0.554,1.032,0.602,0.681,3.085,0.592,0.153,-0.076,0.084,0.273
0.155,0.372,0.745,0.372,-0.558,0,0.559,1.032,0.601,0.678,3.079,0.586,0.15,-0.08,0.084,0.275
0.156,0.379,0.746,0.367,-0.562,0.005,0.556,1.03,0.602,0.685,3.084,0.589,0.153,-0.076,0.086,0.275
0.157,0.377,0.742,0.365,-0.559,0.005,0.554,1.026,0.601,0.684,3.087,0.592,0.153,-0.073,0.087,0.274
0.158,0.375,0.739,0.364,-0.557,0.005,0.552,1.024,0.6,0.686,3.087,0.591,0.153,-0.072,0.092,0.274
0.159,0.369,0.732,0.362,-0.55,0.004,0.547,1.025,0.6,0.681,3.083,0.587,0.148,-0.074,0.088,0.272
0.16,0.374,0.734,0.359,-0.554,0.007,0.547,1.022,0.6,0.679,3.082,0.586,0.145,-0.073,0.091,0.272
0.161,0.377,0.742,0.365,-0.559,0.006,0.554,1.017,0.587,0.678,3.08,0.588,0.146,-0.069,0.101,0.271
0.162,0.373,0.743,0.369,-0.558,0.002,0.556,1.018,0.595,0.68,3.08,0.588,0.144,-0.071,0.098,0.268
0.163,0.38,0.74,0.359,-0.559,0.011,0.55,1.022,0.606,0.683,3.083,0.59,0.147,-0.07,0.088,0.268
0.164,0.382,0.74,0.357,-0.56,0.012,0.549,1.026,0.596,0.68,3.091,0.595,0.154,-0.068,0.085,0.269
0.165,0.386,0.74,0.353,-0.563,0.017,0.546,1.02,0.595,0.682,3.096,0.599,0.158,-0.065,0.087,0.269
0.166,0.387,0.737,0.35,-0.561,0.018,0.544,1.022,0.597,0.683,3.097,0.599,0.158,-0.066,0.087,0.267
0.167,0.387,0.737,0.351,-0.561,0.018,0.544,1.022,0.598,0.685,3.099,0.601,0.16,-0.065,0.086,0.265
0.168,0.39,0.741,0.35,-0.565,0.02,0.545,1.019,0.596,0.686,3.101,0.603,0.161,-0.062,0.09,0.266
0.169,0.39,0.743,0.353,-0.566,0.018,0.548,1.022,0.596,0.688,3.103,0.603,0.163,-0.06,0.089,0.268
0.17,0.379,0.737,0.358,-0.558,0.011,0.548,1.02,0.599,0.689,3.105,0.603,0.164,-0.064,0.081,0.269
0.171,0.373,0.738,0.365,-0.555,0.004,0.552,1.024,0.601,0.691,3.11,0.605,0.168,-0.064,0.079,0.267
0.172,0.386,0.747,0.36,-0.567,0.013,0.554,1.019,0.604,0.697,3.116,0.61,0.174,-0.058,0.084,0.266
0.173,0.386,0.746,0.36,-0.566,0.013,0.553,1.02,0.603,0.697,3.115,0.611,0.171,-0.056,0.088,0.267
0.174,0.377,0.745,0.368,-0.56,0.004,0.557,1.022,0.597,0.693,3.111,0.608,0.165,-0.056,0.091,0.266
0.175,0.375,0.742,0.366,-0.558,0.004,0.555,1.014,0.596,0.693,3.107,0.607,0.163,-0.055,0.092,0.266
0.176,0.381,0.745,0.363,-0.562,0.009,0.554,1.012,0.596,0.692,3.108,0.608,0.166,-0.052,0.092,0.269
0.177,0.383,0.75,0.366,-0.567,0.008,0.558,1.014,0.591,0.691,3.11,0.608,0.167,-0.053,0.094,0.27
0.178,0.382,0.75,0.368,-0.566,0.006,0.56,1.02,0.593,0.693,3.11,0.607,0.165,-0.056,0.102,0.266
0.179,0.386,0.751,0.366,-0.569,0.01,0.559,1.014,0.594,0.695,3.111,0.61,0.167,-0.051,0.105,0.266
0.18,0.38,0.747,0.366,-0.564,0.007,0.557,1.01,0.593,0.695,3.11,0.608,0.166,-0.049,0.102,0.268
0.181,0.38,0.748,0.368,-0.564,0.005,0.558,1.012,0.589,0.694,3.107,0.608,0.162,-0.051,0.106,0.266
0.182,0.388,0.752,0.364,-0.571,0.011,0.559,1.014,0.591,0.696,3.107,0.608,0.16,-0.052,0.107,0.265
0.183,0.394,0.754,0.361,-0.575,0.017,0.558,1.014,0.592,0.696,3.107,0.608,0.161,-0.051,0.104,0.267
0.184,0.395,0.753,0.358,-0.574,0.018,0.556,1.014,0.59,0.698,3.111,0.613,0.165,-0.051,0.102,0.267
0.185,0.39,0.749,0.359,-0.57,0.015,0.555,1.016,0.594,0.703,3.119,0.616,0.169,-0.051,0.099,0.265
0.186,0.382,0.744,0.362,-0.563,0.01,0.553,1.012,0.593,0.701,3.12,0.616,0.17,-0.05,0.094,0.264
0.187,0.386,0.747,0.361,-0.567,0.013,0.554,1.017,0.595,0.701,3.119,0.615,0.171,-0.05,0.096,0.265
0.188,0.393,0.755,0.362,-0.574,0.015,0.559,1.018,0.598,0.703,3.122,0.619,0.174,-0.049,0.099,0.265
0.189,0.394,0.752,0.359,-0.573,0.017,0.556,1.02,0.612,0.708,3.123,0.621,0.175,-0.048,0.095,0.264
0.19,0.395,0.753,0.358,-0.574,0.018,0.556,1.016,0.599,0.706,3.127,0.62,0.175,-0.048,0.097,0.264
0.191,0.393,0.751,0.359,-0.572,0.017,0.556,1.015,0.589,0.705,3.132,0.624,0.18,-0.047,0.095,0.263
0.192,0.387,0.75,0.363,-0.568,0.012,0.556,1.02,0.601,0.707,3.134,0.624,0.181,-0.048,0.095,0.263
0.193,0.379,0.752,0.373,-0.566,0.003,0.564,1.019,0.594,0.706,3.134,0.624,0.18,-0.048,0.103,0.264
0.194,0.381,0.757,0.377,-0.57,0.003,0.568,1.02,0.596,0.712,3.132,0.626,0.18,-0.048,0.107,0.261
0.195,0.388,0.761,0.372,-0.575,0.008,0.568,1.016,0.596,0.711,3.127,0.623,0.176,-0.046,0.102,0.263
0.196,0.392,0.759,0.368,-0.576,0.011,0.565,1.012,0.596,0.712,3.128,0.625,0.177,-0.043,0.098,0.264
0.197,0.393,0.76,0.368,-0.576,0.012,0.565,1.011,0.595,0.716,3.131,0.625,0.178,-0.043,0.1,0.263
0.198,0.389,0.757,0.369,-0.573,0.009,0.564,1.01,0.592,0.716,3.13,0.623,0.176,-0.043,0.1,0.263
0.199,0.388,0.757,0.369,-0.573,0.009,0.564,1.014,0.597,0.715,3.128,0.623,0.177,-0.042,0.101,0.261
0.2,0.389,0.759,0.37,-0.574,0.009,0.565,1.01,0.592,0.714,3.126,0.622,0.175,-0.043,0.104,0.26
0.201,0.395,0.758,0.364,-0.577,0.015,0.561,1.004,0.587,0.72,3.128,0.625,0.174,-0.039,0.108,0.261
0.202,0.404,0.76,0.356,-0.582,0.024,0.558,1.004,0.589,0.719,3.127,0.621,0.173,-0.037,0.11,0.261
0.203,0.406,0.76,0.355,-0.583,0.025,0.558,1.006,0.593,0.717,3.128,0.624,0.178,-0.036,0.112,0.262
0.204,0.398,0.759,0.36,-0.579,0.018,0.56,1.007,0.596,0.722,3.136,0.628,0.182,-0.036,0.108,0.264
0.205,0.389,0.756,0.367,-0.573,0.011,0.562,1.01,0.597,0.723,3.136,0.626,0.182,-0.041,0.104,0.263
0.206,0.393,0.76,0.367,-0.577,0.013,0.564,1.012,0.597,0.725,3.138,0.628,0.185,-0.037,0.104,0.261
0.207,0.4,0.763,0.364,-0.582,0.018,0.564,1.006,0.599,0.725,3.139,0.63,0.186,-0.035,0.107,0.261
0.208,0.402,0.765,0.364,-0.583,0.018,0.566,1.004,0.595,0.723,3.139,0.631,0.185,-0.035,0.113,0.261
0.209,0.398,0.769,0.371,-0.584,0.013,0.571,1.009,0.603,0.726,3.144,0.632,0.187,-0.035,0.106,0.261
0.21,0.393,0.769,0.376,-0.581,0.009,0.573,1.006,0.608,0.73,3.149,0.637,0.191,-0.035,0.097,0.264
0.211,0.395,0.769,0.374,-0.582,0.011,0.572,1.008,0.602,0.733,3.154,0.642,0.197,-0.03,0.098,0.265
0.212,0.395,0.773,0.378,-0.584,0.009,0.576,1.014,0.603,0.735,3.157,0.643,0.198,-0.031,0.107,0.262
0.213,0.392,0.769,0.378,-0.581,0.007,0.574,1.006,0.604,0.731,3.152,0.64,0.194,-0.033,0.112,0.262
0.214,0.389,0.765,0.377,-0.577,0.006,0.571,1.006,0.6,0.727,3.146,0.636,0.192,-0.033,0.108,0.264
0.215,0.387,0.772,0.386,-0.58,0.001,0.58,1.004,0.601,0.729,3.147,0.636,0.191,-0.032,0.115,0.264
0.216,0.393,0.779,0.387,-0.586,0.003,0.584,1.004,0.607,0.736,3.154,0.643,0.195,-0.028,0.114,0.261
0.217,0.392,0.78,0.389,-0.587,0.002,0.585,1.009,0.6,0.732,3.151,0.643,0.194,-0.029,0.109,0.264
0.218,0.388,0.774,0.387,-0.581,0.001,0.581,1.002,0.595,0.726,3.147,0.637,0.191,-0.032,0.107,0.265
0.219,0.389,0.771,0.383,-0.58,0.003,0.578,1.002,0.595,0.728,3.147,0.639,0.192,-0.032,0.111,0.262
0.22,0.388,0.777,0.389,-0.583,-0.001,0.584,1.004,0.6,0.732,3.149,0.644,0.194,-0.029,0.13,0.261
0.221,0.389,0.776,0.388,-0.583,0.001,0.583,1.002,0.6,0.73,3.146,0.642,0.191,-0.028,0.134,0.263
0.222,0.395,0.776,0.383,-0.586,0.006,0.58,0.998,0.594,0.729,3.145,0.644,0.192,-0.024,0.128,0.264
0.223,0.399,0.778,0.379,-0.589,0.011,0.579,0.998,0.596,0.732,3.15,0.648,0.196,-0.023,0.125,0.263
0.224,0.397,0.774,0.377,-0.586,0.01,0.577,1,0.597,0.734,3.153,0.649,0.198,-0.025,0.12,0.264
0.225,0.394,0.771,0.378,-0.583,0.007,0.575,1.002,0.6,0.736,3.156,0.649,0.2,-0.024,0.12,0.263
0.226,0.391,0.768,0.378,-0.58,0.006,0.574,1.001,0.604,0.738,3.158,0.65,0.2,-0.025,0.119,0.26
0.227,0.387,0.765,0.378,-0.576,0.004,0.572,1,0.602,0.739,3.16,0.652,0.201,-0.023,0.12,0.26
0.228,0.388,0.764,0.377,-0.577,0.006,0.571,0.997,0.597,0.738,3.162,0.654,0.203,-0.019,0.117,0.262
0.229,0.394,0.766,0.372,-0.58,0.011,0.57,0.998,0.597,0.738,3.162,0.653,0.204,-0.017,0.116,0.264
0.23,0.4,0.77,0.37,-0.585,0.015,0.571,1.002,0.602,0.74,3.167,0.657,0.209,-0.013,0.114,0.262
0.231,0.396,0.765,0.369,-0.581,0.013,0.568,1.002,0.602,0.742,3.173,0.66,0.211,-0.013,0.102,0.261
0.232,0.383,0.754,0.372,-0.569,0.005,0.564,1,0.598,0.741,3.172,0.658,0.209,-0.015,0.098,0.261
0.233,0.372,0.75,0.377,-0.561,-0.002,0.564,0.994,0.593,0.737,3.167,0.654,0.205,-0.015,0.097,0.259
0.234,0.372,0.756,0.385,-0.565,-0.006,0.571,0.994,0.594,0.738,3.167,0.655,0.204,-0.012,0.112,0.26
0.235,0.374,0.765,0.39,-0.57,-0.007,0.578,0.996,0.602,0.747,3.171,0.661,0.21,-0.009,0.122,0.26
0.236,0.37,0.762,0.393,-0.566,-0.011,0.579,0.995,0.599,0.75,3.172,0.664,0.212,-0.007,0.122,0.259
0.237,0.366,0.76,0.394,-0.564,-0.013,0.578,0.99,0.594,0.747,3.171,0.663,0.212,-0.005,0.126,0.261
0.238,0.364,0.76,0.395,-0.562,-0.015,0.578,0.989,0.596,0.749,3.17,0.662,0.21,-0.007,0.13,0.26
0.239,0.369,0.76,0.391,-0.565,-0.011,0.577,0.99,0.596,0.75,3.17,0.663,0.207,-0.009,0.126,0.259
0.24,0.378,0.76,0.383,-0.569,-0.003,0.572,0.984,0.589,0.745,3.163,0.658,0.206,-0.005,0.119,0.262
0.241,0.389,0.767,0.379,-0.578,0.005,0.574,0.98,0.587,0.745,3.16,0.659,0.205,-0.003,0.126,0.263
0.242,0.404,0.778,0.374,-0.592,0.015,0.577,0.983,0.589,0.747,3.164,0.664,0.208,-0.003,0.132,0.263
0.243,0.404,0.778,0.373,-0.591,0.015,0.577,0.98,0.591,0.748,3.168,0.666,0.21,-0.003,0.127,0.263
0.244,0.393,0.771,0.379,-0.582,0.007,0.576,0.98,0.593,0.75,3.173,0.669,0.213,-0.003,0.122,0.263
0.245,0.388,0.769,0.381,-0.578,0.003,0.576,0.988,0.595,0.753,3.176,0.674,0.218,0,0.122,0.261
0.246,0.382,0.766,0.385,-0.574,-0.002,0.576,0.989,0.597,0.755,3.179,0.678,0.22,0.001,0.119,0.26
0.247,0.386,0.768,0.383,-0.577,0.002,0.576,0.982,0.596,0.753,3.178,0.674,0.22,0.001,0.122,0.262
0.248,0.396,0.775,0.379,-0.586,0.009,0.577,0.982,0.594,0.753,3.178,0.674,0.22,0.003,0.128,0.261
0.249,0.399,0.78,0.382,-0.59,0.009,0.582,0.988,0.596,0.759,3.183,0.678,0.223,0.004,0.13,0.261
0.25,0.395,0.777,0.383,-0.586,0.006,0.58,0.989,0.599,0.76,3.188,0.682,0.227,0.005,0.118,0.262
0.251,0.387,0.774,0.387,-0.581,0.001,0.581,0.992,0.599,0.762,3.192,0.684,0.229,0.004,0.116,0.261
0.252,0.389,0.777,0.388,-0.583,0.001,0.583,0.989,0.601,0.766,3.196,0.686,0.231,0.007,0.122,0.26
0.253,0.388,0.774,0.387,-0.581,0.001,0.581,0.985,0.6,0.768,3.198,0.688,0.231,0.009,0.122,0.26
0.254,0.381,0.771,0.391,-0.576,-0.005,0.582,0.986,0.598,0.766,3.193,0.684,0.228,0.007,0.129,0.26
0.255,0.377,0.77,0.394,-0.574,-0.009,0.583,0.982,0.596,0.762,3.191,0.683,0.226,0.007,0.131,0.262
0.256,0.378,0.77,0.393,-0.574,-0.007,0.582,0.981,0.593,0.764,3.191,0.684,0.226,0.01,0.123,0.262
0.257,0.383,0.772,0.389,-0.578,-0.003,0.582,0.978,0.593,0.766,3.193,0.687,0.228,0.013,0.126,0.262
0.258,0.387,0.774,0.387,-0.581,0,0.581,0.975,0.593,0.767,3.196,0.689,0.228,0.015,0.128,0.261
0.259,0.388,0.769,0.382,-0.579,0.003,0.576,0.973,0.589,0.766,3.195,0.688,0.227,0.014,0.127,0.259
0.26,0.383,0.769,0.387,-0.576,-0.002,0.579,0.97,0.585,0.764,3.195,0.688,0.226,0.015,0.138,0.26
0.261,0.386,0.775,0.39,-0.581,-0.002,0.583,0.966,0.583,0.762,3.192,0.689,0.226,0.018,0.141,0.26
0.262,0.398,0.781,0.384,-0.59,0.007,0.583,0.965,0.584,0.764,3.194,0.693,0.229,0.021,0.141,0.261
0.263,0.404,0.785,0.382,-0.595,0.011,0.584,0.965,0.587,0.768,3.2,0.696,0.233,0.023,0.142,0.26
0.264,0.405,0.784,0.381,-0.595,0.012,0.583,0.966,0.588,0.772,3.207,0.701,0.238,0.025,0.141,0.26
0.265,0.401,0.782,0.382,-0.591,0.009,0.583,0.969,0.592,0.774,3.212,0.707,0.242,0.025,0.137,0.26
0.266,0.399,0.782,0.383,-0.591,0.008,0.583,0.969,0.594,0.777,3.217,0.71,0.244,0.025,0.139,0.259
0.267,0.409,0.788,0.379,-0.599,0.015,0.585,0.968,0.595,0.781,3.221,0.714,0.249,0.026,0.143,0.26
0.268,0.416,0.791,0.376,-0.603,0.02,0.584,0.963,0.594,0.783,3.224,0.717,0.251,0.03,0.134,0.258
0.269,0.419,0.796,0.377,-0.608,0.021,0.587,0.961,0.595,0.783,3.229,0.721,0.255,0.034,0.133,0.26
0.27,0.419,0.8,0.381,-0.609,0.019,0.591,0.966,0.597,0.788,3.236,0.727,0.261,0.036,0.137,0.261
0.271,0.417,0.797,0.38,-0.607,0.019,0.589,0.967,0.599,0.786,3.239,0.726,0.263,0.035,0.133,0.261
0.272,0.419,0.799,0.38,-0.609,0.02,0.59,0.964,0.607,0.798,3.247,0.732,0.267,0.04,0.132,0.259
0.273,0.418,0.802,0.385,-0.61,0.017,0.594,0.962,0.607,0.8,3.246,0.734,0.267,0.043,0.137,0.259
0.274,0.416,0.805,0.389,-0.611,0.014,0.598,0.957,0.592,0.782,3.235,0.727,0.263,0.041,0.144,0.262
0.275,0.415,0.806,0.391,-0.611,0.013,0.599,0.954,0.594,0.79,3.24,0.734,0.267,0.046,0.149,0.259
0.276,0.415,0.81,0.395,-0.612,0.011,0.603,0.952,0.603,0.796,3.247,0.74,0.271,0.051,0.15,0.261
0.277,0.416,0.816,0.4,-0.616,0.009,0.609,0.953,0.596,0.798,3.249,0.743,0.274,0.053,0.15,0.263
0.278,0.418,0.816,0.399,-0.617,0.01,0.608,0.952,0.608,0.803,3.252,0.745,0.274,0.055,0.154,0.263
0.279,0.421,0.818,0.396,-0.619,0.013,0.608,0.948,0.61,0.801,3.254,0.749,0.275,0.057,0.158,0.263
0.28,0.426,0.826,0.4,-0.625,0.013,0.613,0.943,0.577,0.796,3.254,0.751,0.277,0.06,0.165,0.261
0.281,0.433,0.826,0.393,-0.629,0.021,0.61,0.939,0.583,0.795,3.251,0.749,0.273,0.062,0.162,0.264
0.282,0.433,0.823,0.39,-0.627,0.022,0.607,0.949,0.597,0.799,3.251,0.748,0.273,0.061,0.159,0.264
0.283,0.431,0.824,0.393,-0.627,0.019,0.609,0.945,0.59,0.803,3.26,0.754,0.278,0.064,0.165,0.262
0.284,0.436,0.826,0.39,-0.63,0.023,0.609,0.942,0.59,0.807,3.268,0.759,0.283,0.066,0.167,0.262
0.285,0.439,0.827,0.388,-0.632,0.025,0.608,0.943,0.597,0.812,3.271,0.763,0.287,0.07,0.167,0.26
0.286,0.442,0.826,0.384,-0.633,0.029,0.605,0.94,0.604,0.817,3.275,0.767,0.287,0.073,0.166,0.258
0.287,0.442,0.82,0.379,-0.63,0.032,0.6,0.936,0.593,0.813,3.276,0.767,0.286,0.074,0.172,0.258
0.288,0.437,0.822,0.385,-0.628,0.026,0.604,0.931,0.582,0.802,3.27,0.765,0.287,0.073,0.176,0.261
0.289,0.438,0.833,0.395,-0.634,0.021,0.615,0.929,0.583,0.808,3.275,0.77,0.291,0.075,0.176,0.261
0.29,0.456,0.841,0.386,-0.647,0.035,0.614,0.928,0.607,0.829,3.292,0.785,0.303,0.086,0.169,0.261
0.291,0.463,0.848,0.385,-0.655,0.039,0.617,0.934,0.604,0.827,3.297,0.789,0.312,0.087,0.166,0.261
0.292,0.461,0.848,0.388,-0.653,0.036,0.619,0.935,0.587,0.824,3.3,0.79,0.313,0.088,0.166,0.259
0.293,0.464,0.849,0.385,-0.655,0.04,0.618,0.927,0.598,0.828,3.302,0.793,0.313,0.093,0.17,0.261
0.294,0.463,0.857,0.394,-0.659,0.035,0.625,0.925,0.593,0.825,3.3,0.793,0.312,0.094,0.179,0.258
0.295,0.464,0.856,0.393,-0.659,0.035,0.625,0.919,0.593,0.828,3.303,0.797,0.314,0.099,0.179,0.259
0.296,0.466,0.86,0.394,-0.662,0.036,0.627,0.919,0.592,0.832,3.307,0.8,0.318,0.102,0.185,0.26
0.297,0.47,0.866,0.396,-0.667,0.037,0.631,0.917,0.586,0.833,3.309,0.804,0.32,0.105,0.192,0.26
0.298,0.475,0.864,0.389,-0.669,0.043,0.626,0.913,0.589,0.837,3.311,0.807,0.322,0.112,0.191,0.261
0.299,0.474,0.862,0.388,-0.668,0.043,0.625,0.912,0.593,0.843,3.316,0.812,0.324,0.114,0.189,0.26
0.3,0.472,0.863,0.391,-0.667,0.041,0.627,0.907,0.583,0.84,3.317,0.815,0.327,0.117,0.196,0.261
0.301,0.473,0.866,0.393,-0.669,0.041,0.629,0.903,0.576,0.839,3.316,0.817,0.326,0.12,0.202,0.262
0.302,0.482,0.87,0.388,-0.675,0.048,0.629,0.901,0.581,0.843,3.318,0.823,0.329,0.124,0.202,0.262
0.303,0.491,0.873,0.381,-0.681,0.056,0.627,0.899,0.579,0.844,3.325,0.829,0.336,0.129,0.198,0.263
0.304,0.495,0.875,0.379,-0.684,0.058,0.627,0.9,0.587,0.851,3.334,0.835,0.342,0.133,0.19,0.262
0.305,0.498,0.878,0.38,-0.688,0.059,0.629,0.9,0.59,0.856,3.341,0.843,0.347,0.135,0.191,0.261
0.306,0.498,0.881,0.383,-0.69,0.058,0.632,0.899,0.584,0.857,3.345,0.847,0.351,0.137,0.199,0.261
0.307,0.501,0.886,0.385,-0.693,0.058,0.636,0.896,0.584,0.861,3.35,0.853,0.357,0.141,0.203,0.261
0.308,0.504,0.891,0.387,-0.698,0.059,0.639,0.893,0.585,0.864,3.355,0.858,0.362,0.146,0.207,0.26
0.309,0.51,0.897,0.387,-0.703,0.062,0.642,0.891,0.584,0.869,3.361,0.864,0.367,0.152,0.208,0.261
0.31,0.512,0.899,0.388,-0.705,0.062,0.643,0.891,0.585,0.872,3.369,0.871,0.372,0.155,0.204,0.261
0.311,0.506,0.901,0.395,-0.704,0.056,0.648,0.891,0.589,0.877,3.378,0.878,0.381,0.159,0.202,0.262
0.312,0.508,0.906,0.398,-0.707,0.055,0.653,0.886,0.584,0.881,3.385,0.886,0.389,0.166,0.212,0.262
0.313,0.514,0.91,0.396,-0.712,0.059,0.653,0.881,0.584,0.885,3.388,0.889,0.388,0.171,0.217,0.26
0.314,0.514,0.912,0.398,-0.713,0.059,0.656,0.875,0.577,0.882,3.386,0.889,0.388,0.174,0.225,0.262
0.315,0.517,0.919,0.403,-0.718,0.058,0.661,0.873,0.572,0.881,3.388,0.894,0.393,0.177,0.23,0.263
0.316,0.521,0.927,0.407,-0.724,0.057,0.668,0.875,0.579,0.891,3.4,0.904,0.401,0.183,0.223,0.262
0.317,0.521,0.933,0.411,-0.727,0.055,0.672,0.869,0.576,0.894,3.402,0.909,0.405,0.188,0.23,0.266
0.318,0.526,0.936,0.409,-0.731,0.059,0.673,0.867,0.575,0.896,3.408,0.916,0.409,0.192,0.231,0.264
0.319,0.533,0.935,0.402,-0.734,0.066,0.668,0.865,0.572,0.901,3.413,0.923,0.414,0.198,0.229,0.262
0.32,0.536,0.939,0.402,-0.737,0.068,0.67,0.859,0.567,0.904,3.417,0.927,0.42,0.204,0.239,0.262
0.321,0.54,0.946,0.406,-0.743,0.068,0.676,0.853,0.568,0.906,3.421,0.933,0.424,0.209,0.249,0.263
0.322,0.544,0.948,0.404,-0.746,0.07,0.676,0.849,0.571,0.913,3.428,0.94,0.428,0.215,0.256,0.263
0.323,0.549,0.952,0.402,-0.75,0.074,0.677,0.848,0.57,0.914,3.436,0.946,0.438,0.222,0.261,0.264
0.324,0.547,0.949,0.402,-0.747,0.072,0.675,0.848,0.568,0.913,3.439,0.951,0.442,0.223,0.257,0.265
0.325,0.542,0.947,0.405,-0.745,0.069,0.676,0.847,0.567,0.918,3.446,0.957,0.447,0.226,0.249,0.263
0.326,0.553,0.957,0.404,-0.754,0.074,0.681,0.843,0.566,0.924,3.455,0.966,0.454,0.23,0.246,0.261
0.327,0.561,0.965,0.403,-0.762,0.08,0.684,0.846,0.57,0.932,3.464,0.976,0.463,0.236,0.249,0.259
0.328,0.57,0.97,0.4,-0.769,0.085,0.685,0.84,0.57,0.935,3.47,0.983,0.47,0.245,0.252,0.262
0.329,0.573,0.975,0.402,-0.773,0.086,0.689,0.834,0.568,0.939,3.478,0.99,0.475,0.252,0.255,0.265
0.33,0.577,0.976,0.4,-0.775,0.088,0.688,0.833,0.568,0.941,3.483,0.993,0.477,0.254,0.259,0.263
0.331,0.575,0.97,0.395,-0.772,0.09,0.683,0.83,0.565,0.943,3.49,0.999,0.484,0.258,0.258,0.264
0.332,0.566,0.969,0.403,-0.767,0.082,0.686,0.83,0.564,0.946,3.494,1.004,0.49,0.263,0.264,0.265
0.333,0.561,0.971,0.409,-0.765,0.076,0.691,0.828,0.569,0.95,3.497,1.008,0.492,0.265,0.266,0.265
0.334,0.552,0.973,0.42,-0.762,0.066,0.698,0.829,0.57,0.955,3.503,1.018,0.498,0.27,0.266,0.265
0.335,0.553,0.98,0.426,-0.766,0.064,0.704,0.825,0.572,0.959,3.507,1.024,0.501,0.276,0.276,0.265
0.336,0.56,0.986,0.426,-0.772,0.067,0.707,0.822,0.562,0.961,3.512,1.031,0.507,0.281,0.283,0.266
0.337,0.562,0.991,0.428,-0.776,0.067,0.711,0.819,0.553,0.96,3.517,1.034,0.511,0.286,0.29,0.266
0.338,0.565,0.994,0.429,-0.778,0.068,0.712,0.813,0.556,0.96,3.518,1.035,0.514,0.289,0.289,0.266
0.339,0.575,0.998,0.423,-0.785,0.075,0.712,0.813,0.561,0.972,3.528,1.044,0.521,0.295,0.285,0.266
0.34,0.578,1.006,0.429,-0.792,0.074,0.718,0.812,0.557,0.966,3.526,1.044,0.522,0.296,0.295,0.268
0.341,0.584,1.018,0.434,-0.8,0.074,0.727,0.804,0.541,0.955,3.517,1.042,0.52,0.298,0.305,0.27
0.342,0.587,1.018,0.431,-0.802,0.078,0.725,0.796,0.543,0.964,3.523,1.046,0.522,0.304,0.309,0.27
0.343,0.585,1.015,0.43,-0.799,0.077,0.723,0.8,0.548,0.967,3.53,1.052,0.529,0.306,0.308,0.27
0.344,0.592,1.018,0.427,-0.804,0.083,0.723,0.798,0.547,0.97,3.538,1.058,0.537,0.31,0.302,0.271
0.345,0.592,1.023,0.431,-0.807,0.081,0.728,0.796,0.548,0.973,3.542,1.061,0.542,0.313,0.304,0.27
0.346,0.591,1.024,0.433,-0.807,0.079,0.73,0.794,0.548,0.975,3.545,1.065,0.544,0.315,0.297,0.27
0.347,0.593,1.026,0.433,-0.809,0.08,0.73,0.795,0.548,0.975,3.549,1.068,0.548,0.318,0.298,0.271
0.348,0.594,1.03,0.435,-0.811,0.08,0.733,0.796,0.548,0.978,3.554,1.07,0.552,0.322,0.308,0.271
0.349,0.592,1.03,0.438,-0.81,0.077,0.735,0.792,0.545,0.98,3.558,1.073,0.556,0.325,0.306,0.273
0.35,0.593,1.033,0.44,-0.812,0.076,0.737,0.791,0.546,0.98,3.563,1.076,0.562,0.327,0.31,0.273
0.351,0.593,1.033,0.44,-0.812,0.076,0.737,0.791,0.548,0.982,3.568,1.077,0.568,0.328,0.311,0.272
0.352,0.588,1.034,0.446,-0.811,0.071,0.741,0.792,0.546,0.982,3.572,1.082,0.569,0.329,0.315,0.272
0.353,0.589,1.04,0.451,-0.814,0.069,0.746,0.787,0.542,0.982,3.571,1.082,0.569,0.332,0.323,0.273
0.354,0.585,1.042,0.457,-0.812,0.064,0.75,0.784,0.536,0.979,3.567,1.08,0.567,0.333,0.327,0.274
0.355,0.582,1.044,0.463,-0.812,0.059,0.754,0.78,0.538,0.98,3.566,1.082,0.566,0.333,0.328,0.273
0.356,0.587,1.049,0.463,-0.818,0.062,0.756,0.779,0.539,0.983,3.572,1.086,0.571,0.337,0.328,0.274
0.357,0.584,1.048,0.465,-0.816,0.06,0.757,0.779,0.535,0.982,3.571,1.087,0.57,0.338,0.333,0.274
0.358,0.575,1.045,0.469,-0.809,0.053,0.757,0.774,0.531,0.981,3.568,1.087,0.567,0.336,0.333,0.274
0.359,0.573,1.046,0.473,-0.808,0.05,0.76,0.771,0.523,0.98,3.567,1.087,0.568,0.336,0.342,0.273
0.36,0.575,1.047,0.472,-0.81,0.051,0.76,0.768,0.522,0.978,3.562,1.085,0.565,0.338,0.353,0.273
0.361,0.583,1.052,0.47,-0.817,0.056,0.762,0.763,0.521,0.979,3.562,1.085,0.565,0.341,0.361,0.275
0.362,0.591,1.06,0.469,-0.825,0.061,0.765,0.76,0.521,0.98,3.563,1.086,0.567,0.344,0.363,0.277
0.363,0.597,1.068,0.471,-0.832,0.062,0.77,0.769,0.524,0.983,3.567,1.091,0.573,0.344,0.356,0.278
0.364,0.601,1.072,0.471,-0.836,0.065,0.772,0.775,0.526,0.989,3.577,1.1,0.578,0.344,0.35,0.274
0.365,0.6,1.063,0.464,-0.831,0.068,0.763,0.773,0.55,0.995,3.579,1.101,0.579,0.346,0.34,0.277
0.366,0.602,1.067,0.466,-0.834,0.068,0.767,0.769,0.53,0.99,3.577,1.099,0.58,0.345,0.346,0.276
0.367,0.606,1.073,0.467,-0.839,0.07,0.77,0.766,0.508,0.987,3.582,1.104,0.583,0.349,0.357,0.273
0.368,0.604,1.069,0.466,-0.836,0.069,0.767,0.77,0.527,0.992,3.582,1.104,0.584,0.348,0.354,0.275
0.369,0.603,1.073,0.47,-0.838,0.067,0.772,0.772,0.524,0.991,3.58,1.103,0.582,0.345,0.356,0.276
0.37,0.601,1.073,0.472,-0.836,0.065,0.772,0.771,0.525,0.993,3.584,1.105,0.586,0.347,0.349,0.277
0.371,0.586,1.069,0.483,-0.827,0.051,0.776,0.774,0.527,0.995,3.589,1.107,0.592,0.346,0.345,0.277
0.372,0.573,1.063,0.491,-0.818,0.041,0.777,0.773,0.528,0.994,3.587,1.107,0.59,0.346,0.346,0.276
0.373,0.576,1.062,0.487,-0.819,0.044,0.775,0.771,0.53,0.995,3.585,1.105,0.587,0.346,0.348,0.275
0.374,0.589,1.073,0.484,-0.831,0.052,0.779,0.77,0.53,0.995,3.583,1.103,0.584,0.348,0.352,0.275
0.375,0.594,1.077,0.483,-0.835,0.056,0.78,0.765,0.52,0.984,3.573,1.099,0.58,0.345,0.353,0.277
0.376,0.592,1.075,0.483,-0.833,0.054,0.779,0.766,0.521,0.983,3.571,1.095,0.578,0.344,0.355,0.278
0.377,0.591,1.076,0.485,-0.833,0.052,0.781,0.768,0.523,0.985,3.571,1.094,0.577,0.343,0.36,0.276
0.378,0.586,1.071,0.485,-0.828,0.05,0.778,0.77,0.525,0.983,3.569,1.092,0.573,0.34,0.358,0.273
0.379,0.581,1.065,0.484,-0.823,0.048,0.775,0.77,0.526,0.984,3.567,1.089,0.571,0.338,0.356,0.274
0.38,0.579,1.063,0.485,-0.821,0.047,0.774,0.767,0.52,0.978,3.558,1.083,0.565,0.335,0.362,0.273
0.381,0.574,1.062,0.487,-0.818,0.043,0.775,0.762,0.519,0.976,3.55,1.076,0.556,0.332,0.36,0.271
0.382,0.576,1.065,0.489,-0.821,0.043,0.778,0.764,0.52,0.975,3.545,1.071,0.551,0.328,0.36,0.272
0.383,0.579,1.062,0.483,-0.821,0.048,0.773,0.777,0.525,0.976,3.546,1.069,0.552,0.322,0.353,0.27
0.384,0.577,1.056,0.479,-0.816,0.049,0.768,0.781,0.527,0.975,3.545,1.068,0.551,0.318,0.349,0.269
0.385,0.571,1.05,0.479,-0.81,0.046,0.765,0.782,0.532,0.973,3.542,1.062,0.547,0.315,0.345,0.268
0.386,0.562,1.043,0.481,-0.802,0.041,0.762,0.792,0.536,0.972,3.539,1.056,0.545,0.308,0.336,0.265
0.387,0.559,1.038,0.478,-0.798,0.04,0.758,0.796,0.542,0.972,3.537,1.053,0.54,0.303,0.334,0.264
0.388,0.555,1.03,0.474,-0.792,0.041,0.752,0.797,0.541,0.966,3.528,1.043,0.533,0.296,0.329,0.262
0.389,0.545,1.022,0.477,-0.783,0.034,0.75,0.803,0.542,0.96,3.518,1.031,0.522,0.286,0.321,0.261
0.39,0.541,1.022,0.481,-0.781,0.03,0.752,0.814,0.547,0.96,3.519,1.029,0.521,0.281,0.317,0.26
0.391,0.549,1.022,0.473,-0.785,0.038,0.749,0.823,0.558,0.962,3.517,1.028,0.521,0.277,0.311,0.259
0.392,0.545,1.02,0.475,-0.782,0.035,0.748,0.825,0.563,0.959,3.509,1.019,0.51,0.269,0.311,0.258
0.393,0.531,1.013,0.482,-0.771,0.024,0.749,0.826,0.549,0.949,3.495,1.004,0.497,0.258,0.307,0.255
0.394,0.53,1.006,0.475,-0.767,0.028,0.742,0.825,0.544,0.935,3.474,0.988,0.482,0.247,0.301,0.256
0.395,0.533,1.002,0.469,-0.767,0.032,0.736,0.828,0.551,0.931,3.465,0.978,0.472,0.241,0.304,0.256
0.396,0.527,0.995,0.467,-0.76,0.03,0.731,0.833,0.551,0.926,3.458,0.971,0.466,0.235,0.3,0.254
0.397,0.521,0.988,0.468,-0.754,0.027,0.728,0.84,0.557,0.92,3.443,0.958,0.455,0.225,0.295,0.254
0.398,0.519,0.987,0.468,-0.752,0.026,0.728,0.847,0.57,0.918,3.435,0.949,0.446,0.215,0.296,0.249
0.399,0.508,0.984,0.476,-0.746,0.016,0.731,0.846,0.55,0.906,3.426,0.937,0.435,0.206,0.295,0.247
0.4,0.5,0.979,0.478,-0.739,0.011,0.729,0.85,0.551,0.899,3.412,0.924,0.423,0.197,0.291,0.249
0.401,0.496,0.97,0.474,-0.733,0.011,0.723,0.857,0.559,0.891,3.398,0.91,0.41,0.186,0.288,0.249
0.402,0.487,0.96,0.472,-0.723,0.007,0.716,0.858,0.549,0.879,3.381,0.895,0.397,0.175,0.277,0.25
0.403,0.484,0.953,0.469,-0.718,0.007,0.712,0.867,0.552,0.874,3.373,0.885,0.391,0.167,0.267,0.251
0.404,0.485,0.947,0.462,-0.716,0.011,0.705,0.873,0.555,0.87,3.37,0.878,0.387,0.162,0.265,0.251
0.405,0.477,0.939,0.462,-0.708,0.008,0.701,0.878,0.559,0.866,3.362,0.87,0.381,0.152,0.258,0.248
0.406,0.465,0.93,0.465,-0.697,0,0.698,0.883,0.56,0.859,3.353,0.86,0.37,0.141,0.254,0.248
0.407,0.462,0.922,0.462,-0.692,0,0.693,0.885,0.561,0.852,3.344,0.85,0.362,0.133,0.247,0.249
0.408,0.456,0.919,0.464,-0.686,-0.004,0.692,0.894,0.563,0.845,3.334,0.839,0.354,0.122,0.241,0.247
0.409,0.447,0.913,0.466,-0.679,-0.009,0.69,0.902,0.565,0.84,3.325,0.83,0.346,0.114,0.236,0.248
0.41,0.441,0.902,0.462,-0.67,-0.011,0.682,0.904,0.565,0.835,3.319,0.822,0.341,0.107,0.224,0.249
0.411,0.432,0.894,0.463,-0.663,-0.015,0.679,0.91,0.571,0.833,3.316,0.812,0.336,0.099,0.221,0.248
0.412,0.419,0.887,0.468,-0.652,-0.024,0.678,0.92,0.573,0.829,3.308,0.802,0.328,0.09,0.214,0.249
0.413,0.413,0.883,0.47,-0.648,-0.029,0.677,0.926,0.572,0.82,3.296,0.792,0.319,0.081,0.218,0.249
0.414,0.411,0.882,0.471,-0.646,-0.029,0.677,0.931,0.572,0.815,3.284,0.784,0.31,0.074,0.222,0.247
0.415,0.416,0.879,0.463,-0.647,-0.023,0.672,0.931,0.574,0.808,3.273,0.775,0.303,0.071,0.212,0.248
0.416,0.421,0.876,0.455,-0.648,-0.017,0.666,0.929,0.573,0.797,3.261,0.762,0.292,0.066,0.215,0.249
0.417,0.41,0.863,0.453,-0.636,-0.021,0.658,0.933,0.567,0.787,3.245,0.748,0.277,0.053,0.211,0.249
0.418,0.407,0.861,0.454,-0.634,-0.023,0.658,0.938,0.569,0.781,3.24,0.742,0.272,0.048,0.205,0.251
0.419,0.403,0.862,0.46,-0.632,-0.029,0.661,0.945,0.568,0.777,3.235,0.738,0.27,0.041,0.204,0.252
0.42,0.395,0.852,0.457,-0.623,-0.031,0.655,0.944,0.56,0.765,3.217,0.724,0.257,0.034,0.203,0.253
0.421,0.388,0.843,0.455,-0.615,-0.034,0.649,0.939,0.556,0.753,3.201,0.713,0.244,0.03,0.203,0.254
0.422,0.384,0.834,0.451,-0.609,-0.033,0.642,0.946,0.567,0.753,3.196,0.708,0.239,0.021,0.194,0.251
0.423,0.385,0.829,0.445,-0.606,-0.03,0.637,0.947,0.567,0.749,3.192,0.703,0.237,0.017,0.182,0.255
0.424,0.379,0.823,0.444,-0.601,-0.033,0.634,0.955,0.559,0.741,3.189,0.697,0.235,0.014,0.181,0.259
0.425,0.378,0.821,0.444,-0.6,-0.033,0.632,0.962,0.566,0.742,3.188,0.695,0.234,0.009,0.18,0.256
0.426,0.382,0.823,0.441,-0.602,-0.029,0.632,0.964,0.571,0.74,3.184,0.69,0.232,0.005,0.178,0.256
0.427,0.382,0.819,0.437,-0.6,-0.028,0.628,0.97,0.572,0.736,3.176,0.684,0.227,-0.001,0.171,0.255
0.428,0.376,0.811,0.436,-0.593,-0.03,0.624,0.969,0.57,0.73,3.167,0.675,0.219,-0.006,0.169,0.258
0.429,0.373,0.811,0.438,-0.593,-0.033,0.625,0.973,0.57,0.726,3.163,0.667,0.215,-0.011,0.165,0.26
0.43,0.366,0.809,0.443,-0.588,-0.038,0.626,0.98,0.57,0.723,3.161,0.665,0.214,-0.018,0.157,0.26
0.431,0.364,0.805,0.441,-0.585,-0.038,0.624,0.985,0.572,0.721,3.158,0.661,0.211,-0.025,0.152,0.26
0.432,0.359,0.803,0.445,-0.582,-0.043,0.625,0.987,0.575,0.721,3.158,0.659,0.209,-0.028,0.151,0.258
0.433,0.35,0.798,0.449,-0.574,-0.049,0.624,0.989,0.573,0.712,3.148,0.651,0.203,-0.033,0.155,0.257
0.434,0.355,0.801,0.446,-0.578,-0.045,0.624,0.99,0.574,0.705,3.137,0.641,0.196,-0.037,0.16,0.259
0.435,0.358,0.804,0.446,-0.581,-0.043,0.625,0.988,0.573,0.705,3.135,0.64,0.193,-0.037,0.159,0.259
0.436,0.354,0.799,0.446,-0.577,-0.046,0.623,0.99,0.572,0.7,3.128,0.634,0.189,-0.041,0.158,0.263
0.437,0.35,0.794,0.444,-0.573,-0.046,0.62,0.99,0.57,0.696,3.123,0.631,0.184,-0.044,0.153,0.265
0.438,0.348,0.79,0.442,-0.57,-0.047,0.617,0.992,0.569,0.693,3.119,0.628,0.18,-0.046,0.151,0.261
0.439,0.348,0.784,0.436,-0.567,-0.044,0.611,0.993,0.578,0.691,3.115,0.623,0.176,-0.051,0.149,0.26
0.44,0.349,0.783,0.434,-0.567,-0.043,0.609,0.994,0.575,0.686,3.11,0.622,0.175,-0.051,0.15,0.261
0.441,0.344,0.78,0.436,-0.562,-0.046,0.609,0.992,0.566,0.678,3.101,0.616,0.168,-0.055,0.157,0.261
0.442,0.339,0.773,0.434,-0.556,-0.048,0.605,0.994,0.567,0.672,3.092,0.609,0.162,-0.06,0.151,0.262
0.443,0.347,0.78,0.433,-0.564,-0.043,0.608,0.997,0.571,0.675,3.098,0.611,0.166,-0.058,0.148,0.262
0.444,0.355,0.782,0.427,-0.569,-0.036,0.606,0.991,0.577,0.68,3.106,0.616,0.172,-0.054,0.144,0.263
0.445,0.349,0.774,0.425,-0.561,-0.038,0.601,1,0.579,0.678,3.104,0.613,0.171,-0.058,0.136,0.262
0.446,0.341,0.768,0.426,-0.554,-0.043,0.598,1.008,0.579,0.675,3.1,0.609,0.169,-0.064,0.136,0.258
0.447,0.337,0.766,0.428,-0.551,-0.046,0.598,1.004,0.578,0.674,3.099,0.607,0.168,-0.061,0.136,0.261
0.448,0.337,0.766,0.429,-0.551,-0.046,0.599,1.002,0.579,0.673,3.099,0.604,0.167,-0.061,0.137,0.263
0.449,0.332,0.757,0.426,-0.544,-0.048,0.593,1.006,0.579,0.671,3.096,0.6,0.166,-0.066,0.136,0.264
0.45,0.33,0.755,0.426,-0.542,-0.049,0.592,1.01,0.579,0.669,3.095,0.596,0.164,-0.067,0.13,0.264
0.451,0.331,0.751,0.421,-0.541,-0.045,0.587,1.008,0.582,0.67,3.1,0.601,0.168,-0.065,0.12,0.265
0.452,0.325,0.744,0.418,-0.534,-0.047,0.582,1.015,0.584,0.67,3.102,0.6,0.169,-0.066,0.118,0.263
0.453,0.321,0.749,0.427,-0.534,-0.053,0.589,1.01,0.58,0.667,3.094,0.594,0.164,-0.069,0.13,0.261
0.454,0.318,0.749,0.431,-0.533,-0.057,0.591,1.008,0.576,0.666,3.087,0.59,0.16,-0.068,0.134,0.265
0.455,0.319,0.746,0.427,-0.532,-0.053,0.587,1.012,0.582,0.668,3.087,0.591,0.16,-0.066,0.129,0.265
0.456,0.322,0.75,0.427,-0.536,-0.053,0.589,1.011,0.585,0.671,3.088,0.594,0.163,-0.066,0.131,0.264
0.457,0.317,0.75,0.432,-0.533,-0.058,0.592,1.01,0.583,0.669,3.086,0.592,0.161,-0.065,0.132,0.266
0.458,0.319,0.752,0.434,-0.535,-0.058,0.594,1.007,0.583,0.671,3.086,0.593,0.159,-0.066,0.139,0.262
0.459,0.322,0.756,0.434,-0.539,-0.057,0.596,1.01,0.589,0.671,3.081,0.588,0.153,-0.07,0.14,0.261
0.46,0.32,0.752,0.432,-0.535,-0.057,0.593,1.008,0.578,0.664,3.072,0.583,0.149,-0.072,0.135,0.265
0.461,0.322,0.752,0.431,-0.537,-0.054,0.592,1.006,0.574,0.662,3.07,0.584,0.145,-0.071,0.14,0.265
0.462,0.321,0.753,0.433,-0.537,-0.057,0.594,1.002,0.576,0.664,3.071,0.583,0.144,-0.071,0.139,0.266
0.463,0.327,0.755,0.429,-0.541,-0.051,0.593,1.004,0.582,0.667,3.075,0.586,0.149,-0.07,0.137,0.265
0.464,0.331,0.752,0.421,-0.541,-0.045,0.587,1.011,0.605,0.676,3.083,0.592,0.152,-0.067,0.136,0.263
0.465,0.326,0.75,0.424,-0.537,-0.049,0.588,1.009,0.581,0.666,3.082,0.59,0.151,-0.07,0.135,0.265
0.466,0.327,0.749,0.422,-0.538,-0.048,0.586,1.01,0.581,0.661,3.076,0.585,0.147,-0.073,0.131,0.266
0.467,0.323,0.746,0.423,-0.534,-0.051,0.585,1.01,0.589,0.661,3.075,0.584,0.145,-0.074,0.131,0.263
0.468,0.321,0.746,0.424,-0.533,-0.051,0.586,1.003,0.569,0.654,3.075,0.585,0.147,-0.07,0.135,0.264
0.469,0.323,0.745,0.422,-0.534,-0.05,0.585,1.004,0.578,0.651,3.072,0.584,0.149,-0.071,0.132,0.267
0.47,0.328,0.75,0.423,-0.539,-0.048,0.587,1.012,0.588,0.662,3.08,0.589,0.153,-0.07,0.125,0.263
0.471,0.333,0.755,0.423,-0.544,-0.045,0.59,1.012,0.592,0.668,3.09,0.597,0.16,-0.068,0.121,0.263
0.472,0.325,0.756,0.431,-0.54,-0.053,0.595,1.014,0.584,0.654,3.082,0.594,0.158,-0.075,0.126,0.264
0.473,0.326,0.753,0.428,-0.539,-0.051,0.592,1.017,0.589,0.658,3.082,0.593,0.157,-0.073,0.124,0.262
0.474,0.334,0.757,0.424,-0.545,-0.045,0.591,1.008,0.587,0.655,3.075,0.588,0.154,-0.068,0.129,0.265
0.475,0.338,0.757,0.419,-0.547,-0.041,0.589,1.002,0.581,0.65,3.069,0.584,0.148,-0.071,0.133,0.268
0.476,0.337,0.751,0.415,-0.543,-0.039,0.584,1.012,0.589,0.651,3.07,0.583,0.147,-0.07,0.127,0.265
0.477,0.335,0.753,0.419,-0.544,-0.042,0.587,1.012,0.587,0.65,3.067,0.582,0.145,-0.071,0.127,0.265
0.478,0.332,0.754,0.423,-0.543,-0.045,0.59,1,0.583,0.651,3.068,0.582,0.144,-0.073,0.128,0.266
0.479,0.33,0.755,0.426,-0.542,-0.049,0.592,1.007,0.583,0.648,3.067,0.58,0.145,-0.072,0.136,0.265
0.48,0.332,0.76,0.428,-0.546,-0.048,0.595,1.012,0.581,0.646,3.064,0.579,0.143,-0.073,0.14,0.265
0.481,0.339,0.766,0.427,-0.552,-0.044,0.597,0.998,0.578,0.646,3.062,0.578,0.141,-0.071,0.146,0.264
0.482,0.343,0.766,0.424,-0.554,-0.041,0.596,0.999,0.584,0.65,3.063,0.58,0.141,-0.07,0.15,0.264
0.483,0.342,0.76,0.418,-0.551,-0.038,0.59,1.008,0.587,0.653,3.067,0.584,0.144,-0.07,0.144,0.264
0.484,0.343,0.758,0.415,-0.55,-0.036,0.588,1.008,0.585,0.654,3.071,0.584,0.147,-0.071,0.141,0.266
0.485,0.343,0.758,0.415,-0.55,-0.036,0.587,1.008,0.586,0.655,3.072,0.583,0.146,-0.075,0.128,0.265
0.486,0.343,0.752,0.41,-0.548,-0.034,0.582,1.009,0.584,0.654,3.073,0.582,0.147,-0.076,0.124,0.264
0.487,0.346,0.752,0.406,-0.549,-0.03,0.58,1.008,0.585,0.656,3.075,0.585,0.149,-0.075,0.131,0.264
0.488,0.351,0.758,0.406,-0.555,-0.028,0.583,1.006,0.586,0.657,3.078,0.587,0.151,-0.071,0.131,0.263
0.489,0.35,0.763,0.412,-0.556,-0.031,0.588,1.006,0.587,0.657,3.081,0.588,0.155,-0.07,0.134,0.266
0.49,0.345,0.764,0.419,-0.555,-0.036,0.592,1.014,0.593,0.663,3.088,0.593,0.159,-0.071,0.131,0.264
0.491,0.343,0.763,0.42,-0.553,-0.038,0.592,1.016,0.593,0.663,3.092,0.595,0.162,-0.072,0.127,0.262
0.492,0.34,0.764,0.424,-0.552,-0.043,0.595,1.015,0.592,0.662,3.091,0.595,0.161,-0.072,0.13,0.261
0.493,0.337,0.761,0.424,-0.549,-0.043,0.593,1.014,0.59,0.661,3.087,0.592,0.157,-0.072,0.129,0.262
0.494,0.336,0.76,0.424,-0.548,-0.044,0.593,1.012,0.586,0.659,3.082,0.59,0.153,-0.076,0.13,0.262
0.495,0.341,0.765,0.424,-0.553,-0.042,0.595,1.007,0.586,0.66,3.08,0.589,0.152,-0.074,0.133,0.262
0.496,0.344,0.77,0.426,-0.557,-0.041,0.599,1.008,0.583,0.659,3.08,0.589,0.152,-0.07,0.136,0.263
0.497,0.342,0.766,0.425,-0.554,-0.042,0.596,1,0.589,0.659,3.078,0.589,0.149,-0.07,0.136,0.266
0.498,0.34,0.764,0.424,-0.552,-0.042,0.595,0.996,0.578,0.655,3.076,0.587,0.149,-0.071,0.135,0.265
0.499,0.345,0.771,0.425,-0.558,-0.04,0.599,1.006,0.576,0.661,3.081,0.592,0.15,-0.071,0.139,0.257
0.5,0.351,0.77,0.419,-0.561,-0.035,0.596,1.001,0.581,0.66,3.076,0.59,0.148,-0.071,0.144,0.261
0.501,0.351,0.772,0.421,-0.561,-0.035,0.598,0.996,0.574,0.656,3.071,0.587,0.147,-0.071,0.146,0.259
0.502,0.354,0.772,0.418,-0.563,-0.032,0.595,0.997,0.581,0.664,3.075,0.593,0.153,-0.064,0.144,0.263
0.503,0.354,0.772,0.418,-0.562,-0.032,0.595,0.997,0.58,0.666,3.079,0.594,0.153,-0.066,0.144,0.267
0.504,0.356,0.769,0.413,-0.562,-0.029,0.592,1,0.59,0.67,3.082,0.593,0.153,-0.069,0.135,0.258
0.505,0.361,0.769,0.407,-0.566,-0.023,0.589,1,0.586,0.664,3.078,0.59,0.152,-0.069,0.134,0.262
0.506,0.359,0.77,0.411,-0.565,-0.026,0.592,0.995,0.577,0.661,3.076,0.587,0.15,-0.071,0.139,0.262
0.507,0.351,0.762,0.41,-0.556,-0.029,0.587,0.997,0.585,0.666,3.083,0.589,0.152,-0.07,0.134,0.261
0.508,0.34,0.761,0.421,-0.551,-0.041,0.592,1.001,0.585,0.666,3.084,0.589,0.153,-0.07,0.138,0.263
0.509,0.342,0.773,0.431,-0.557,-0.045,0.603,1.003,0.588,0.669,3.087,0.592,0.159,-0.067,0.136,0.264
0.51,0.36,0.775,0.415,-0.568,-0.027,0.596,1.006,0.591,0.672,3.093,0.598,0.165,-0.065,0.124,0.263
0.511,0.369,0.78,0.41,-0.575,-0.021,0.596,1.008,0.59,0.673,3.094,0.598,0.167,-0.066,0.124,0.263
0.512,0.365,0.782,0.417,-0.574,-0.025,0.6,1.017,0.597,0.678,3.098,0.601,0.169,-0.067,0.122,0.262
0.513,0.364,0.785,0.421,-0.575,-0.029,0.604,1.012,0.6,0.679,3.1,0.604,0.17,-0.066,0.13,0.261
0.514,0.358,0.79,0.432,-0.575,-0.036,0.612,0.999,0.584,0.669,3.088,0.595,0.161,-0.068,0.139,0.262
0.515,0.351,0.782,0.431,-0.567,-0.04,0.607,1.002,0.58,0.667,3.087,0.593,0.158,-0.069,0.138,0.26
0.516,0.354,0.78,0.426,-0.568,-0.036,0.604,1.002,0.584,0.672,3.089,0.596,0.161,-0.065,0.145,0.262
0.517,0.356,0.783,0.427,-0.57,-0.035,0.606,0.999,0.58,0.666,3.082,0.589,0.155,-0.066,0.147,0.265
0.518,0.351,0.781,0.431,-0.567,-0.04,0.607,1,0.58,0.663,3.08,0.585,0.154,-0.067,0.146,0.265
0.519,0.352,0.781,0.429,-0.567,-0.038,0.606,0.999,0.58,0.666,3.083,0.588,0.157,-0.064,0.142,0.262
0.52,0.354,0.783,0.429,-0.569,-0.038,0.607,0.995,0.577,0.663,3.082,0.588,0.152,-0.065,0.145,0.261
0.521,0.353,0.782,0.429,-0.568,-0.038,0.607,0.991,0.574,0.657,3.074,0.586,0.148,-0.065,0.153,0.263
0.522,0.359,0.785,0.425,-0.573,-0.033,0.606,0.987,0.575,0.661,3.076,0.588,0.151,-0.06,0.15,0.266
0.523,0.358,0.787,0.429,-0.573,-0.036,0.609,0.99,0.576,0.663,3.08,0.591,0.153,-0.062,0.147,0.266
0.524,0.356,0.784,0.428,-0.57,-0.036,0.607,0.996,0.578,0.663,3.082,0.592,0.154,-0.064,0.141,0.264
0.525,0.359,0.782,0.423,-0.571,-0.032,0.604,0.999,0.58,0.663,3.087,0.594,0.159,-0.065,0.141,0.263
0.526,0.359,0.777,0.418,-0.569,-0.029,0.598,1.003,0.582,0.665,3.09,0.598,0.163,-0.064,0.141,0.261
0.527,0.364,0.774,0.409,-0.57,-0.022,0.593,1.001,0.58,0.666,3.091,0.599,0.164,-0.061,0.135,0.264
0.528,0.364,0.774,0.409,-0.569,-0.023,0.592,1.002,0.578,0.662,3.086,0.594,0.16,-0.065,0.13,0.265
0.529,0.361,0.776,0.414,-0.569,-0.027,0.596,1.004,0.585,0.664,3.087,0.594,0.158,-0.064,0.133,0.262
0.53,0.361,0.775,0.413,-0.568,-0.026,0.595,1.002,0.586,0.666,3.09,0.595,0.161,-0.065,0.133,0.263
0.531,0.364,0.776,0.412,-0.571,-0.025,0.595,1.005,0.582,0.666,3.095,0.598,0.166,-0.065,0.13,0.263
0.532,0.365,0.779,0.414,-0.573,-0.025,0.598,1.008,0.592,0.669,3.099,0.601,0.168,-0.062,0.132,0.262
0.533,0.363,0.777,0.414,-0.571,-0.025,0.597,1.006,0.596,0.67,3.094,0.598,0.163,-0.063,0.129,0.261
0.534,0.36,0.778,0.418,-0.569,-0.029,0.599,1.002,0.579,0.662,3.088,0.594,0.158,-0.065,0.133,0.263
0.535,0.356,0.775,0.419,-0.566,-0.032,0.598,1,0.574,0.658,3.083,0.59,0.154,-0.067,0.14,0.264
0.536,0.359,0.779,0.42,-0.569,-0.03,0.6,0.996,0.574,0.657,3.083,0.589,0.153,-0.066,0.139,0.265
0.537,0.362,0.78,0.418,-0.571,-0.028,0.6,0.991,0.571,0.657,3.083,0.588,0.156,-0.061,0.137,0.267
0.538,0.361,0.776,0.415,-0.569,-0.027,0.596,0.995,0.577,0.661,3.083,0.589,0.156,-0.061,0.141,0.266
0.539,0.363,0.776,0.412,-0.57,-0.025,0.595,0.995,0.577,0.66,3.083,0.59,0.153,-0.062,0.145,0.263
0.54,0.364,0.773,0.408,-0.569,-0.022,0.592,0.993,0.577,0.659,3.08,0.591,0.152,-0.062,0.144,0.263
0.541,0.362,0.771,0.409,-0.567,-0.023,0.591,0.988,0.571,0.654,3.073,0.585,0.148,-0.062,0.143,0.265
0.542,0.362,0.769,0.407,-0.566,-0.022,0.589,0.985,0.567,0.653,3.073,0.585,0.148,-0.061,0.146,0.268
0.543,0.367,0.771,0.404,-0.569,-0.018,0.588,0.989,0.57,0.654,3.077,0.588,0.15,-0.062,0.145,0.271
0.544,0.369,0.773,0.404,-0.571,-0.018,0.589,0.987,0.567,0.653,3.079,0.588,0.152,-0.062,0.14,0.267
0.545,0.361,0.768,0.407,-0.565,-0.023,0.588,0.99,0.572,0.657,3.083,0.592,0.156,-0.061,0.135,0.262
0.546,0.358,0.77,0.412,-0.565,-0.027,0.592,0.992,0.576,0.659,3.084,0.593,0.155,-0.063,0.133,0.261
0.547,0.358,0.773,0.414,-0.566,-0.029,0.595,0.993,0.571,0.657,3.083,0.59,0.156,-0.064,0.136,0.261
0.548,0.359,0.776,0.416,-0.568,-0.029,0.597,0.993,0.571,0.654,3.082,0.587,0.157,-0.066,0.138,0.267
0.549,0.361,0.778,0.417,-0.57,-0.028,0.598,0.993,0.575,0.656,3.085,0.59,0.16,-0.063,0.135,0.27
0.55,0.361,0.778,0.417,-0.57,-0.028,0.599,0.996,0.578,0.66,3.091,0.593,0.165,-0.061,0.128,0.266
0.551,0.363,0.779,0.415,-0.572,-0.026,0.598,0.997,0.581,0.663,3.096,0.596,0.169,-0.061,0.129,0.266
0.552,0.361,0.778,0.417,-0.57,-0.028,0.599,0.997,0.581,0.663,3.098,0.597,0.168,-0.061,0.132,0.267
0.553,0.358,0.779,0.421,-0.569,-0.032,0.601,0.995,0.577,0.661,3.095,0.596,0.166,-0.06,0.139,0.267
0.554,0.358,0.779,0.421,-0.569,-0.032,0.601,0.991,0.575,0.658,3.09,0.595,0.165,-0.058,0.14,0.268
0.555,0.36,0.78,0.419,-0.571,-0.029,0.6,0.981,0.567,0.653,3.082,0.586,0.158,-0.06,0.137,0.268
0.556,0.361,0.777,0.416,-0.569,-0.028,0.598,0.989,0.567,0.651,3.079,0.585,0.156,-0.064,0.141,0.266
0.557,0.367,0.776,0.408,-0.572,-0.02,0.593,0.99,0.567,0.648,3.079,0.584,0.155,-0.061,0.135,0.268
0.558,0.37,0.772,0.402,-0.571,-0.015,0.587,0.984,0.567,0.647,3.079,0.581,0.155,-0.059,0.13,0.269
0.559,0.368,0.774,0.406,-0.572,-0.018,0.591,0.989,0.572,0.651,3.083,0.585,0.156,-0.061,0.133,0.267
0.56,0.367,0.785,0.417,-0.577,-0.025,0.602,0.987,0.571,0.649,3.08,0.585,0.154,-0.061,0.132,0.267
0.561,0.361,0.787,0.425,-0.575,-0.032,0.607,0.985,0.56,0.645,3.075,0.583,0.151,-0.063,0.142,0.266
0.562,0.368,0.783,0.414,-0.576,-0.024,0.6,0.987,0.576,0.651,3.075,0.584,0.152,-0.061,0.145,0.266
0.563,0.371,0.78,0.409,-0.576,-0.019,0.595,0.986,0.589,0.655,3.078,0.585,0.152,-0.061,0.136,0.269
0.564,0.368,0.78,0.412,-0.574,-0.022,0.597,0.987,0.561,0.648,3.083,0.585,0.155,-0.063,0.139,0.268
0.565,0.366,0.78,0.413,-0.573,-0.024,0.597,0.989,0.565,0.651,3.086,0.588,0.158,-0.061,0.14,0.267
0.566,0.364,0.778,0.414,-0.572,-0.025,0.597,0.987,0.572,0.651,3.086,0.588,0.158,-0.064,0.136,0.268
0.567,0.363,0.777,0.413,-0.57,-0.025,0.596,0.994,0.569,0.65,3.086,0.588,0.159,-0.067,0.139,0.267
0.568,0.362,0.777,0.415,-0.57,-0.026,0.597,0.999,0.574,0.65,3.087,0.59,0.159,-0.067,0.14,0.267
0.569,0.365,0.777,0.411,-0.572,-0.023,0.595,0.993,0.57,0.65,3.087,0.591,0.158,-0.066,0.13,0.269
0.57,0.368,0.777,0.409,-0.573,-0.021,0.594,0.991,0.574,0.652,3.087,0.591,0.16,-0.065,0.132,0.27
0.571,0.364,0.773,0.408,-0.569,-0.022,0.592,0.994,0.574,0.651,3.088,0.59,0.164,-0.063,0.129,0.271
0.572,0.363,0.772,0.408,-0.568,-0.022,0.591,0.995,0.573,0.651,3.087,0.59,0.165,-0.063,0.121,0.276
0.573,0.363,0.782,0.419,-0.573,-0.029,0.602,0.997,0.572,0.651,3.087,0.592,0.164,-0.064,0.138,0.279
0.574,0.362,0.78,0.418,-0.571,-0.028,0.6,0.996,0.574,0.65,3.083,0.589,0.162,-0.065,0.136,0.267
0.575,0.364,0.773,0.408,-0.569,-0.021,0.591,0.997,0.578,0.65,3.079,0.585,0.158,-0.067,0.127,0.265
0.576,0.364,0.779,0.415,-0.572,-0.025,0.598,0.993,0.569,0.646,3.079,0.583,0.155,-0.066,0.134,0.274
0.577,0.367,0.783,0.416,-0.576,-0.025,0.601,0.992,0.565,0.643,3.076,0.582,0.153,-0.066,0.138,0.274
0.578,0.363,0.779,0.415,-0.571,-0.026,0.598,0.995,0.564,0.642,3.075,0.581,0.153,-0.068,0.136,0.272
0.579,0.357,0.774,0.417,-0.566,-0.03,0.597,0.99,0.566,0.641,3.073,0.581,0.15,-0.069,0.137,0.27
0.58,0.356,0.772,0.415,-0.564,-0.03,0.594,0.99,0.564,0.639,3.07,0.58,0.148,-0.068,0.14,0.27
0.581,0.358,0.773,0.415,-0.566,-0.029,0.595,0.989,0.562,0.637,3.066,0.579,0.147,-0.068,0.135,0.272
0.582,0.363,0.778,0.414,-0.571,-0.025,0.597,0.99,0.566,0.639,3.067,0.58,0.148,-0.067,0.14,0.273
0.583,0.359,0.773,0.414,-0.567,-0.028,0.595,0.992,0.566,0.64,3.071,0.584,0.151,-0.067,0.132,0.274
0.584,0.353,0.767,0.413,-0.56,-0.03,0.591,0.994,0.568,0.642,3.075,0.588,0.153,-0.069,0.119,0.274
0.585,0.357,0.77,0.412,-0.564,-0.028,0.592,0.993,0.57,0.642,3.075,0.589,0.155,-0.069,0.124,0.274
0.586,0.361,0.766,0.406,-0.564,-0.022,0.587,0.995,0.582,0.644,3.075,0.585,0.154,-0.069,0.12,0.273
0.587,0.356,0.757,0.401,-0.556,-0.022,0.58,0.994,0.572,0.641,3.074,0.583,0.153,-0.067,0.12,0.274
0.588,0.353,0.753,0.401,-0.553,-0.024,0.578,0.982,0.554,0.629,3.067,0.578,0.149,-0.068,0.122,0.278
0.589,0.355,0.758,0.403,-0.556,-0.025,0.581,0.987,0.567,0.638,3.071,0.577,0.149,-0.07,0.124,0.275
0.59,0.365,0.765,0.4,-0.566,-0.017,0.583,0.997,0.576,0.648,3.081,0.585,0.157,-0.067,0.122,0.274
0.591,0.363,0.768,0.405,-0.566,-0.021,0.587,1,0.574,0.638,3.078,0.584,0.158,-0.07,0.117,0.275
0.592,0.354,0.766,0.412,-0.56,-0.029,0.59,1.002,0.576,0.643,3.079,0.585,0.16,-0.07,0.119,0.273
0.593,0.348,0.761,0.413,-0.554,-0.032,0.588,1,0.573,0.641,3.076,0.583,0.155,-0.07,0.121,0.274
0.594,0.344,0.756,0.413,-0.55,-0.035,0.585,0.994,0.567,0.634,3.068,0.578,0.149,-0.073,0.128,0.274
0.595,0.355,0.76,0.405,-0.558,-0.025,0.584,0.994,0.568,0.635,3.068,0.579,0.15,-0.069,0.124,0.275
0.596,0.364,0.768,0.404,-0.567,-0.019,0.587,0.993,0.568,0.634,3.067,0.578,0.149,-0.069,0.116,0.279
0.597,0.361,0.765,0.404,-0.564,-0.021,0.585,0.987,0.567,0.637,3.067,0.578,0.147,-0.069,0.117,0.276
0.598,0.354,0.757,0.404,-0.555,-0.025,0.581,0.991,0.567,0.636,3.067,0.577,0.143,-0.072,0.117,0.272
0.599,0.347,0.753,0.406,-0.55,-0.029,0.58,0.992,0.562,0.627,3.058,0.571,0.139,-0.076,0.124,0.272
0.6,0.349,0.752,0.404,-0.551,-0.028,0.579,0.987,0.559,0.623,3.054,0.566,0.136,-0.075,0.132,0.274
0.601,0.359,0.76,0.402,-0.559,-0.021,0.582,0.989,0.56,0.625,3.053,0.568,0.137,-0.073,0.134,0.273
0.602,0.367,0.767,0.401,-0.567,-0.017,0.585,0.993,0.569,0.629,3.054,0.57,0.138,-0.074,0.136,0.273
0.603,0.365,0.765,0.4,-0.566,-0.017,0.583,0.998,0.568,0.629,3.055,0.571,0.139,-0.075,0.129,0.274
0.604,0.363,0.763,0.4,-0.564,-0.018,0.582,0.991,0.559,0.625,3.057,0.571,0.141,-0.074,0.124,0.277
0.605,0.36,0.759,0.399,-0.559,-0.019,0.58,0.986,0.564,0.625,3.058,0.571,0.141,-0.074,0.122,0.277
0.606,0.361,0.756,0.395,-0.558,-0.017,0.576,0.992,0.57,0.627,3.059,0.573,0.143,-0.073,0.122,0.274
0.607,0.364,0.759,0.396,-0.562,-0.015,0.578,0.994,0.565,0.628,3.065,0.576,0.147,-0.071,0.123,0.274
0.608,0.36,0.754,0.395,-0.557,-0.018,0.575,0.993,0.566,0.625,3.062,0.572,0.143,-0.074,0.118,0.275
0.609,0.357,0.748,0.391,-0.552,-0.017,0.57,0.989,0.561,0.624,3.059,0.568,0.141,-0.076,0.112,0.277
0.61,0.355,0.75,0.395,-0.553,-0.02,0.574,0.993,0.564,0.627,3.064,0.572,0.145,-0.076,0.112,0.275
0.611,0.353,0.751,0.399,-0.552,-0.023,0.576,0.997,0.573,0.629,3.067,0.571,0.144,-0.08,0.112,0.272
0.612,0.358,0.758,0.401,-0.558,-0.021,0.58,0.996,0.567,0.626,3.066,0.571,0.144,-0.077,0.113,0.275
0.613,0.359,0.759,0.4,-0.559,-0.02,0.58,0.997,0.567,0.625,3.063,0.571,0.145,-0.073,0.114,0.277
0.614,0.356,0.758,0.402,-0.557,-0.022,0.58,0.991,0.563,0.624,3.059,0.568,0.14,-0.076,0.121,0.276
0.615,0.36,0.762,0.402,-0.561,-0.021,0.583,0.992,0.566,0.622,3.054,0.567,0.138,-0.077,0.123,0.276
0.616,0.356,0.76,0.404,-0.558,-0.024,0.583,0.992,0.565,0.621,3.054,0.567,0.138,-0.08,0.121,0.277
0.617,0.354,0.759,0.406,-0.557,-0.025,0.583,0.99,0.557,0.621,3.054,0.566,0.136,-0.079,0.125,0.279
0.618,0.357,0.76,0.404,-0.559,-0.023,0.583,0.992,0.56,0.62,3.051,0.565,0.135,-0.08,0.127,0.278
0.619,0.363,0.758,0.396,-0.56,-0.017,0.578,0.982,0.558,0.62,3.05,0.566,0.134,-0.079,0.119,0.276
0.62,0.364,0.756,0.392,-0.56,-0.014,0.575,0.982,0.555,0.619,3.045,0.562,0.13,-0.078,0.121,0.279
0.621,0.36,0.761,0.401,-0.56,-0.021,0.582,0.991,0.557,0.618,3.04,0.559,0.127,-0.081,0.134,0.278
0.622,0.363,0.76,0.398,-0.562,-0.018,0.58,0.993,0.561,0.621,3.045,0.564,0.129,-0.08,0.13,0.278
0.623,0.366,0.76,0.394,-0.563,-0.014,0.578,0.993,0.557,0.62,3.046,0.564,0.13,-0.08,0.122,0.279
0.624,0.373,0.76,0.388,-0.567,-0.007,0.575,0.99,0.559,0.62,3.046,0.561,0.131,-0.081,0.117,0.278
0.625,0.374,0.76,0.386,-0.567,-0.005,0.574,0.993,0.56,0.619,3.047,0.563,0.133,-0.08,0.115,0.278
0.626,0.373,0.761,0.388,-0.568,-0.007,0.575,0.994,0.558,0.62,3.047,0.561,0.133,-0.081,0.117,0.278
0.627,0.371,0.76,0.389,-0.566,-0.009,0.575,0.996,0.562,0.622,3.049,0.56,0.132,-0.083,0.121,0.277
0.628,0.357,0.76,0.404,-0.559,-0.023,0.583,1.002,0.562,0.623,3.05,0.561,0.134,-0.086,0.124,0.276
0.629,0.358,0.764,0.406,-0.561,-0.024,0.586,1.002,0.566,0.625,3.053,0.565,0.138,-0.083,0.119,0.276
0.63,0.366,0.762,0.396,-0.565,-0.015,0.58,1.003,0.562,0.622,3.055,0.567,0.14,-0.08,0.113,0.278
0.631,0.365,0.76,0.396,-0.562,-0.015,0.579,1.003,0.566,0.625,3.059,0.567,0.142,-0.08,0.107,0.278
0.632,0.359,0.762,0.403,-0.561,-0.022,0.583,1.004,0.57,0.626,3.059,0.568,0.141,-0.082,0.108,0.277
0.633,0.354,0.762,0.408,-0.558,-0.027,0.586,1.008,0.568,0.623,3.055,0.564,0.136,-0.087,0.115,0.278
0.634,0.359,0.763,0.404,-0.561,-0.022,0.584,1.007,0.571,0.623,3.054,0.563,0.134,-0.085,0.112,0.278
0.635,0.359,0.759,0.401,-0.559,-0.021,0.581,1.004,0.565,0.619,3.049,0.564,0.135,-0.085,0.115,0.28
0.636,0.357,0.761,0.405,-0.559,-0.024,0.584,1.001,0.562,0.619,3.05,0.564,0.135,-0.084,0.12,0.279
0.637,0.362,0.763,0.401,-0.563,-0.019,0.583,1.002,0.567,0.624,3.053,0.566,0.137,-0.08,0.115,0.278
0.638,0.361,0.758,0.397,-0.56,-0.018,0.578,1.002,0.566,0.623,3.049,0.564,0.134,-0.083,0.112,0.278
0.639,0.355,0.754,0.4,-0.554,-0.022,0.578,0.998,0.562,0.619,3.043,0.559,0.13,-0.084,0.11,0.278
0.64,0.35,0.752,0.402,-0.551,-0.026,0.578,0.995,0.554,0.612,3.035,0.555,0.127,-0.086,0.115,0.281
0.641,0.357,0.758,0.401,-0.558,-0.022,0.581,0.991,0.55,0.612,3.034,0.554,0.124,-0.084,0.119,0.279
0.642,0.362,0.759,0.397,-0.561,-0.017,0.579,0.99,0.551,0.616,3.037,0.557,0.128,-0.082,0.119,0.279
0.643,0.36,0.753,0.394,-0.557,-0.017,0.574,0.994,0.555,0.617,3.038,0.558,0.128,-0.085,0.116,0.279
0.644,0.36,0.751,0.39,-0.556,-0.015,0.571,0.997,0.558,0.62,3.042,0.56,0.129,-0.087,0.114,0.277
0.645,0.364,0.754,0.39,-0.559,-0.013,0.573,1,0.561,0.625,3.05,0.567,0.135,-0.085,0.116,0.277
0.646,0.367,0.76,0.393,-0.564,-0.013,0.577,1.002,0.56,0.625,3.05,0.567,0.136,-0.084,0.112,0.275
0.647,0.359,0.755,0.396,-0.557,-0.018,0.576,1.002,0.566,0.626,3.05,0.567,0.134,-0.086,0.112,0.277
0.648,0.353,0.751,0.399,-0.552,-0.022,0.576,1.003,0.567,0.627,3.049,0.567,0.136,-0.087,0.114,0.277
0.649,0.355,0.752,0.397,-0.553,-0.021,0.575,1.005,0.558,0.625,3.049,0.566,0.136,-0.087,0.106,0.279
0.65,0.348,0.745,0.397,-0.546,-0.024,0.571,1.006,0.574,0.631,3.058,0.571,0.141,-0.084,0.103,0.275
0.651,0.373,0.747,0.374,-0.56,0,0.561,1.005,0.58,0.63,3.058,0.577,0.143,-0.09,0.102,0.279
0.652,0.374,0.742,0.367,-0.558,0.004,0.555,1.008,0.572,0.632,3.058,0.586,0.153,-0.077,0.092,0.288
0.653,0.351,0.755,0.404,-0.553,-0.026,0.58,1.012,0.576,0.636,3.063,0.568,0.14,-0.08,0.093,0.274
0.654,0.352,0.765,0.412,-0.559,-0.03,0.59,1.008,0.571,0.63,3.055,0.554,0.121,-0.092,0.101,0.273
0.655,0.342,0.741,0.399,-0.541,-0.028,0.57,0.999,0.562,0.624,3.046,0.562,0.129,-0.085,0.101,0.278
0.656,0.337,0.739,0.403,-0.537,-0.033,0.572,0.997,0.558,0.622,3.047,0.564,0.13,-0.086,0.103,0.278
0.657,0.336,0.74,0.405,-0.538,-0.035,0.573,1.003,0.559,0.624,3.047,0.564,0.13,-0.085,0.104,0.278
0.658,0.35,0.744,0.394,-0.547,-0.021,0.569,1.014,0.577,0.637,3.063,0.562,0.131,-0.09,0.087,0.273
0.659,0.35,0.745,0.394,-0.548,-0.021,0.57,1.01,0.574,0.635,3.058,0.562,0.129,-0.088,0.093,0.274
0.66,0.343,0.741,0.398,-0.542,-0.028,0.57,0.996,0.554,0.619,3.038,0.556,0.124,-0.086,0.113,0.28
0.661,0.344,0.74,0.396,-0.541,-0.026,0.569,0.994,0.553,0.616,3.037,0.553,0.12,-0.086,0.116,0.28
0.662,0.339,0.737,0.398,-0.538,-0.029,0.568,0.994,0.553,0.615,3.035,0.554,0.12,-0.085,0.119,0.281
0.663,0.344,0.741,0.397,-0.542,-0.026,0.57,0.996,0.555,0.618,3.039,0.554,0.123,-0.086,0.113,0.281
0.664,0.35,0.747,0.397,-0.548,-0.024,0.573,0.999,0.559,0.622,3.042,0.557,0.127,-0.086,0.107,0.281
0.665,0.354,0.75,0.396,-0.552,-0.021,0.574,1.002,0.562,0.623,3.047,0.559,0.13,-0.086,0.104,0.281
0.666,0.351,0.747,0.396,-0.549,-0.022,0.572,1.006,0.565,0.624,3.051,0.56,0.13,-0.089,0.105,0.277
0.667,0.351,0.749,0.399,-0.55,-0.024,0.574,1.004,0.564,0.626,3.053,0.56,0.13,-0.089,0.112,0.276
0.668,0.354,0.749,0.394,-0.551,-0.02,0.572,1.004,0.565,0.625,3.053,0.56,0.131,-0.087,0.102,0.279
0.669,0.352,0.745,0.393,-0.548,-0.02,0.569,1.003,0.564,0.622,3.049,0.559,0.131,-0.086,0.094,0.282
0.67,0.346,0.744,0.398,-0.545,-0.025,0.572,1.006,0.564,0.625,3.055,0.561,0.134,-0.086,0.091,0.279
0.671,0.349,0.747,0.397,-0.547,-0.024,0.572,1.01,0.569,0.628,3.061,0.563,0.137,-0.088,0.089,0.278
0.672,0.347,0.747,0.4,-0.547,-0.026,0.574,1.008,0.568,0.627,3.059,0.562,0.138,-0.087,0.087,0.279
0.673,0.338,0.742,0.405,-0.54,-0.034,0.574,1.002,0.566,0.623,3.053,0.558,0.131,-0.088,0.095,0.276
0.674,0.342,0.744,0.403,-0.543,-0.03,0.574,1.003,0.557,0.621,3.05,0.557,0.128,-0.089,0.1,0.277
0.675,0.36,0.752,0.393,-0.556,-0.016,0.573,1.006,0.565,0.627,3.053,0.561,0.133,-0.084,0.083,0.276
0.676,0.371,0.757,0.386,-0.565,-0.007,0.573,1.006,0.575,0.632,3.053,0.561,0.131,-0.084,0.097,0.275
0.677,0.365,0.759,0.394,-0.562,-0.015,0.577,1.006,0.564,0.625,3.049,0.556,0.127,-0.088,0.115,0.278
0.678,0.359,0.753,0.394,-0.556,-0.018,0.574,1.006,0.572,0.626,3.049,0.557,0.129,-0.089,0.108,0.275
0.679,0.352,0.75,0.398,-0.551,-0.022,0.575,1.004,0.561,0.625,3.049,0.559,0.128,-0.09,0.114,0.272
0.68,0.351,0.747,0.397,-0.549,-0.022,0.572,1.001,0.563,0.618,3.038,0.552,0.122,-0.09,0.111,0.278
0.681,0.349,0.75,0.401,-0.549,-0.026,0.576,0.999,0.561,0.62,3.039,0.554,0.123,-0.088,0.116,0.278
0.682,0.346,0.751,0.405,-0.549,-0.029,0.579,0.998,0.554,0.622,3.042,0.557,0.126,-0.088,0.115,0.279
0.683,0.345,0.749,0.404,-0.547,-0.029,0.577,1.001,0.567,0.625,3.045,0.558,0.129,-0.088,0.104,0.281
0.684,0.347,0.755,0.408,-0.551,-0.03,0.583,1.009,0.568,0.63,3.052,0.563,0.135,-0.087,0.103,0.28
0.685,0.356,0.755,0.4,-0.556,-0.021,0.578,1.011,0.581,0.632,3.054,0.564,0.138,-0.085,0.101,0.279
0.686,0.354,0.751,0.398,-0.552,-0.022,0.575,1.008,0.567,0.625,3.05,0.561,0.136,-0.086,0.107,0.277
0.687,0.348,0.746,0.397,-0.547,-0.024,0.572,1.006,0.562,0.624,3.049,0.561,0.136,-0.086,0.104,0.278
0.688,0.347,0.744,0.396,-0.545,-0.025,0.57,1.01,0.571,0.627,3.053,0.562,0.138,-0.084,0.1,0.28
0.689,0.346,0.747,0.4,-0.546,-0.026,0.574,1.01,0.569,0.628,3.054,0.56,0.136,-0.086,0.102,0.279
0.69,0.344,0.747,0.403,-0.545,-0.029,0.575,1.013,0.574,0.628,3.053,0.559,0.138,-0.087,0.1,0.28
0.691,0.344,0.744,0.4,-0.543,-0.028,0.572,1.014,0.568,0.62,3.051,0.557,0.138,-0.088,0.093,0.28
0.692,0.341,0.74,0.399,-0.54,-0.029,0.57,1.01,0.57,0.627,3.055,0.558,0.137,-0.086,0.094,0.278
0.693,0.343,0.742,0.4,-0.542,-0.029,0.571,1.008,0.577,0.641,3.063,0.565,0.138,-0.082,0.097,0.277
0.694,0.343,0.745,0.402,-0.543,-0.03,0.574,1.002,0.571,0.626,3.051,0.559,0.135,-0.085,0.097,0.278
0.695,0.343,0.741,0.398,-0.541,-0.028,0.57,1.004,0.573,0.617,3.041,0.551,0.131,-0.086,0.101,0.279
0.696,0.348,0.742,0.395,-0.545,-0.024,0.569,1.006,0.56,0.616,3.039,0.549,0.127,-0.088,0.106,0.28
0.697,0.351,0.747,0.396,-0.549,-0.022,0.572,1.002,0.556,0.616,3.038,0.548,0.126,-0.088,0.102,0.281
0.698,0.354,0.749,0.395,-0.551,-0.021,0.573,1.002,0.565,0.622,3.041,0.551,0.127,-0.088,0.102,0.281
0.699,0.354,0.75,0.396,-0.552,-0.021,0.573,1.004,0.556,0.616,3.039,0.55,0.126,-0.09,0.103,0.28
0.7,0.353,0.747,0.394,-0.55,-0.02,0.571,1.002,0.569,0.622,3.038,0.548,0.124,-0.087,0.104,0.279
0.701,0.356,0.752,0.397,-0.554,-0.02,0.575,1,0.569,0.621,3.035,0.549,0.122,-0.087,0.108,0.278
0.702,0.361,0.756,0.396,-0.558,-0.018,0.577,1.003,0.554,0.616,3.034,0.551,0.123,-0.091,0.108,0.279
0.703,0.357,0.75,0.392,-0.553,-0.018,0.572,1.006,0.562,0.622,3.04,0.554,0.127,-0.091,0.103,0.28
0.704,0.36,0.753,0.393,-0.556,-0.017,0.574,1.009,0.569,0.626,3.046,0.556,0.131,-0.089,0.095,0.28
0.705,0.364,0.757,0.393,-0.561,-0.015,0.576,1.01,0.571,0.629,3.049,0.558,0.131,-0.09,0.103,0.279
0.706,0.361,0.754,0.393,-0.557,-0.015,0.574,1.013,0.57,0.627,3.05,0.558,0.131,-0.092,0.103,0.278
0.707,0.355,0.749,0.395,-0.552,-0.02,0.572,1.012,0.568,0.625,3.05,0.557,0.131,-0.093,0.097,0.278
0.708,0.358,0.751,0.394,-0.555,-0.018,0.573,1.01,0.57,0.627,3.05,0.56,0.133,-0.092,0.1,0.278
0.709,0.358,0.753,0.395,-0.555,-0.018,0.575,1.011,0.566,0.624,3.05,0.558,0.133,-0.09,0.102,0.28
0.71,0.351,0.746,0.395,-0.548,-0.022,0.571,1.012,0.566,0.623,3.05,0.558,0.133,-0.092,0.098,0.278
0.711,0.353,0.747,0.394,-0.55,-0.02,0.571,1.014,0.571,0.626,3.057,0.562,0.137,-0.091,0.093,0.278
0.712,0.355,0.75,0.395,-0.553,-0.02,0.573,1.017,0.583,0.632,3.06,0.564,0.14,-0.089,0.098,0.278
0.713,0.349,0.75,0.4,-0.549,-0.025,0.576,1.018,0.581,0.631,3.058,0.566,0.137,-0.091,0.098,0.275
0.714,0.342,0.751,0.408,-0.546,-0.034,0.581,1.016,0.57,0.626,3.054,0.564,0.134,-0.092,0.097,0.276
0.715,0.346,0.748,0.402,-0.547,-0.028,0.576,1.014,0.572,0.626,3.051,0.56,0.131,-0.091,0.096,0.277
0.716,0.348,0.744,0.396,-0.545,-0.024,0.57,1.009,0.568,0.622,3.043,0.554,0.128,-0.09,0.094,0.28
0.717,0.346,0.741,0.395,-0.543,-0.024,0.568,1.004,0.566,0.619,3.042,0.554,0.128,-0.089,0.093,0.28
0.718,0.343,0.74,0.397,-0.541,-0.026,0.569,1.005,0.569,0.622,3.046,0.557,0.13,-0.09,0.093,0.279
0.719,0.344,0.742,0.397,-0.543,-0.026,0.57,1.009,0.566,0.625,3.045,0.558,0.13,-0.087,0.102,0.28
0.72,0.348,0.74,0.391,-0.544,-0.021,0.566,1.004,0.567,0.622,3.04,0.555,0.126,-0.086,0.104,0.279
0.721,0.345,0.736,0.39,-0.54,-0.022,0.563,1,0.569,0.621,3.034,0.551,0.121,-0.088,0.102,0.281
0.722,0.348,0.736,0.388,-0.542,-0.02,0.562,1.002,0.561,0.618,3.034,0.55,0.122,-0.089,0.101,0.281
0.723,0.349,0.736,0.387,-0.542,-0.018,0.561,1.003,0.561,0.616,3.036,0.55,0.123,-0.089,0.099,0.281
0.724,0.346,0.731,0.385,-0.538,-0.019,0.558,1.004,0.567,0.62,3.041,0.553,0.128,-0.087,0.095,0.281
0.725,0.344,0.731,0.387,-0.537,-0.021,0.559,1.002,0.565,0.62,3.043,0.556,0.128,-0.088,0.094,0.279
0.726,0.345,0.732,0.387,-0.538,-0.021,0.56,1.002,0.564,0.621,3.043,0.557,0.127,-0.09,0.092,0.278
0.727,0.344,0.734,0.39,-0.539,-0.023,0.562,1.005,0.566,0.623,3.044,0.555,0.13,-0.09,0.089,0.278
0.728,0.344,0.734,0.39,-0.538,-0.024,0.562,1.008,0.567,0.624,3.045,0.555,0.132,-0.088,0.092,0.281
0.729,0.349,0.736,0.386,-0.542,-0.018,0.561,1.006,0.566,0.623,3.046,0.556,0.132,-0.088,0.093,0.281
0.73,0.349,0.738,0.39,-0.543,-0.02,0.564,1.008,0.567,0.624,3.049,0.556,0.134,-0.089,0.089,0.28
0.731,0.349,0.738,0.388,-0.543,-0.019,0.563,1.006,0.566,0.623,3.048,0.557,0.135,-0.09,0.087,0.28
0.732,0.348,0.74,0.392,-0.543,-0.022,0.566,1.004,0.567,0.622,3.048,0.557,0.134,-0.089,0.091,0.281
0.733,0.339,0.737,0.398,-0.538,-0.029,0.568,1.007,0.566,0.623,3.046,0.558,0.131,-0.091,0.091,0.28
0.734,0.335,0.736,0.401,-0.535,-0.033,0.569,1.008,0.565,0.623,3.046,0.558,0.131,-0.091,0.095,0.279
0.735,0.334,0.737,0.403,-0.535,-0.035,0.571,1.01,0.568,0.623,3.046,0.557,0.131,-0.09,0.102,0.277
0.736,0.333,0.735,0.402,-0.533,-0.035,0.569,1.008,0.564,0.62,3.043,0.554,0.126,-0.092,0.1,0.279
0.737,0.335,0.733,0.399,-0.533,-0.032,0.566,1.006,0.564,0.619,3.041,0.554,0.126,-0.091,0.1,0.28
0.738,0.335,0.73,0.395,-0.532,-0.03,0.563,1.004,0.565,0.62,3.04,0.553,0.126,-0.09,0.098,0.279
0.739,0.333,0.729,0.396,-0.53,-0.032,0.562,1.002,0.561,0.62,3.037,0.551,0.122,-0.091,0.098,0.28
0.74,0.334,0.732,0.398,-0.532,-0.033,0.566,1.002,0.558,0.616,3.031,0.547,0.12,-0.092,0.109,0.281
0.741,0.338,0.735,0.397,-0.536,-0.029,0.567,0.998,0.558,0.615,3.026,0.545,0.117,-0.091,0.112,0.282
0.742,0.338,0.735,0.397,-0.536,-0.03,0.567,0.998,0.558,0.617,3.027,0.547,0.118,-0.091,0.106,0.281
0.743,0.333,0.733,0.4,-0.532,-0.034,0.567,1,0.56,0.62,3.033,0.547,0.121,-0.092,0.1,0.281
0.744,0.334,0.732,0.399,-0.532,-0.033,0.566,1.004,0.565,0.62,3.034,0.548,0.124,-0.093,0.098,0.282
0.745,0.334,0.73,0.396,-0.531,-0.032,0.563,1.006,0.569,0.623,3.037,0.551,0.126,-0.093,0.093,0.279
0.746,0.333,0.73,0.397,-0.531,-0.033,0.564,1.001,0.565,0.622,3.041,0.55,0.126,-0.093,0.093,0.281
0.747,0.336,0.729,0.393,-0.532,-0.029,0.561,1.002,0.564,0.619,3.037,0.551,0.126,-0.091,0.093,0.281
0.748,0.338,0.728,0.39,-0.532,-0.026,0.559,1.006,0.569,0.62,3.035,0.551,0.124,-0.089,0.088,0.281
0.749,0.338,0.728,0.39,-0.533,-0.026,0.559,1.002,0.564,0.619,3.036,0.55,0.125,-0.089,0.093,0.284
0.75,0.336,0.727,0.391,-0.531,-0.028,0.559,1.005,0.566,0.621,3.041,0.553,0.128,-0.09,0.089,0.282
0.751,0.33,0.727,0.397,-0.528,-0.034,0.562,1.009,0.566,0.621,3.043,0.552,0.127,-0.093,0.086,0.281
0.752,0.325,0.725,0.4,-0.524,-0.037,0.562,1.009,0.571,0.62,3.041,0.549,0.126,-0.095,0.094,0.279
0.753,0.319,0.719,0.4,-0.518,-0.041,0.559,1.006,0.569,0.617,3.034,0.544,0.122,-0.093,0.096,0.279
0.754,0.318,0.721,0.403,-0.519,-0.042,0.562,1.003,0.557,0.611,3.027,0.541,0.118,-0.094,0.099,0.281
0.755,0.325,0.727,0.402,-0.525,-0.038,0.565,1.004,0.566,0.616,3.034,0.546,0.122,-0.09,0.102,0.28
0.756,0.325,0.728,0.403,-0.526,-0.039,0.566,1.003,0.563,0.617,3.036,0.547,0.123,-0.089,0.101,0.281
0.757,0.323,0.725,0.402,-0.523,-0.04,0.564,1,0.558,0.613,3.031,0.543,0.118,-0.091,0.098,0.28
0.758,0.324,0.723,0.4,-0.523,-0.038,0.562,0.997,0.556,0.61,3.03,0.541,0.117,-0.091,0.094,0.281
0.759,0.332,0.733,0.401,-0.532,-0.035,0.568,1,0.556,0.614,3.029,0.544,0.117,-0.092,0.098,0.279
0.76,0.334,0.736,0.402,-0.534,-0.034,0.569,1.004,0.556,0.615,3.029,0.545,0.115,-0.091,0.1,0.279
0.761,0.333,0.732,0.399,-0.532,-0.034,0.566,1.002,0.551,0.613,3.024,0.544,0.114,-0.091,0.104,0.279
0.762,0.338,0.733,0.396,-0.535,-0.029,0.565,1.001,0.556,0.613,3.025,0.542,0.116,-0.091,0.104,0.279
0.763,0.342,0.734,0.391,-0.538,-0.025,0.562,1.002,0.56,0.614,3.029,0.542,0.118,-0.093,0.099,0.281
0.764,0.342,0.733,0.39,-0.537,-0.024,0.561,1.005,0.564,0.62,3.036,0.548,0.12,-0.095,0.093,0.279
0.765,0.34,0.73,0.391,-0.534,-0.025,0.56,1.01,0.564,0.62,3.04,0.549,0.122,-0.096,0.089,0.277
0.766,0.341,0.723,0.382,-0.531,-0.021,0.553,1.009,0.558,0.614,3.034,0.545,0.123,-0.095,0.087,0.278
0.767,0.342,0.721,0.379,-0.531,-0.018,0.55,1.006,0.557,0.616,3.037,0.548,0.128,-0.09,0.089,0.279
0.768,0.341,0.727,0.385,-0.534,-0.022,0.556,1.01,0.564,0.618,3.038,0.55,0.132,-0.088,0.098,0.28
0.769,0.34,0.726,0.387,-0.532,-0.024,0.557,1.012,0.569,0.62,3.041,0.552,0.133,-0.089,0.095,0.281
0.77,0.333,0.723,0.39,-0.527,-0.029,0.556,1.013,0.574,0.626,3.049,0.556,0.134,-0.092,0.08,0.281
0.771,0.336,0.723,0.387,-0.529,-0.025,0.555,1.012,0.569,0.622,3.047,0.554,0.134,-0.092,0.071,0.282
0.772,0.342,0.726,0.384,-0.534,-0.021,0.555,1.008,0.569,0.622,3.042,0.55,0.132,-0.093,0.077,0.281
0.773,0.334,0.725,0.392,-0.529,-0.029,0.558,1.011,0.568,0.621,3.04,0.55,0.128,-0.094,0.084,0.278
0.774,0.332,0.724,0.393,-0.527,-0.03,0.558,1.01,0.562,0.619,3.038,0.55,0.127,-0.092,0.083,0.28
0.775,0.335,0.726,0.392,-0.53,-0.029,0.559,1.006,0.559,0.617,3.033,0.547,0.124,-0.092,0.084,0.281
0.776,0.334,0.723,0.39,-0.528,-0.028,0.557,1.002,0.559,0.616,3.031,0.547,0.124,-0.091,0.086,0.281
0.777,0.337,0.725,0.388,-0.53,-0.026,0.557,1.004,0.557,0.613,3.027,0.545,0.121,-0.094,0.089,0.281
0.778,0.335,0.726,0.392,-0.53,-0.029,0.559,1.005,0.555,0.611,3.026,0.544,0.119,-0.094,0.092,0.281
0.779,0.331,0.725,0.394,-0.528,-0.032,0.56,1.005,0.559,0.616,3.029,0.547,0.122,-0.091,0.1,0.28
0.78,0.328,0.726,0.398,-0.527,-0.035,0.562,0.998,0.553,0.61,3.021,0.542,0.116,-0.094,0.111,0.28
0.781,0.323,0.723,0.4,-0.523,-0.038,0.562,0.999,0.551,0.607,3.015,0.539,0.111,-0.096,0.106,0.28
0.782,0.324,0.72,0.396,-0.522,-0.035,0.558,1.002,0.55,0.611,3.019,0.543,0.115,-0.095,0.101,0.278
0.783,0.329,0.718,0.389,-0.523,-0.03,0.554,1.001,0.554,0.614,3.026,0.545,0.118,-0.092,0.093,0.279
0.784,0.335,0.722,0.387,-0.528,-0.026,0.555,1.006,0.562,0.616,3.029,0.547,0.12,-0.095,0.086,0.279
0.785,0.337,0.726,0.39,-0.531,-0.026,0.558,1.01,0.565,0.617,3.03,0.548,0.12,-0.097,0.09,0.278
0.786,0.335,0.72,0.386,-0.527,-0.025,0.553,1.008,0.564,0.616,3.031,0.547,0.122,-0.093,0.087,0.28
0.787,0.337,0.718,0.382,-0.527,-0.023,0.55,1.005,0.562,0.616,3.033,0.548,0.124,-0.092,0.086,0.278
0.788,0.337,0.72,0.383,-0.528,-0.023,0.551,1.006,0.565,0.617,3.031,0.545,0.121,-0.093,0.09,0.28
0.789,0.335,0.719,0.384,-0.527,-0.025,0.552,1.004,0.556,0.614,3.032,0.545,0.121,-0.095,0.085,0.282
0.79,0.33,0.72,0.391,-0.525,-0.03,0.556,1.008,0.567,0.62,3.039,0.55,0.126,-0.094,0.084,0.281
0.791,0.329,0.724,0.396,-0.526,-0.034,0.56,1.016,0.571,0.62,3.042,0.55,0.127,-0.093,0.082,0.281
0.792,0.335,0.727,0.393,-0.53,-0.029,0.56,1.008,0.568,0.618,3.041,0.55,0.128,-0.091,0.086,0.281
0.793,0.334,0.729,0.396,-0.531,-0.031,0.563,1.006,0.566,0.621,3.041,0.551,0.128,-0.089,0.101,0.281
0.794,0.328,0.727,0.4,-0.527,-0.036,0.564,1.008,0.563,0.619,3.035,0.55,0.125,-0.091,0.1,0.281
0.795,0.327,0.723,0.396,-0.525,-0.035,0.56,1.002,0.569,0.617,3.03,0.544,0.119,-0.091,0.093,0.281
0.796,0.327,0.726,0.4,-0.526,-0.036,0.564,1.002,0.561,0.618,3.033,0.544,0.118,-0.09,0.092,0.282
0.797,0.329,0.726,0.397,-0.527,-0.034,0.562,1.003,0.566,0.621,3.034,0.548,0.121,-0.09,0.095,0.28
0.798,0.334,0.72,0.387,-0.527,-0.026,0.554,1.002,0.558,0.616,3.03,0.547,0.118,-0.091,0.094,0.28
0.799,0.334,0.717,0.384,-0.525,-0.025,0.551,0.998,0.55,0.611,3.024,0.541,0.113,-0.095,0.095,0.28
0.8,0.331,0.717,0.387,-0.524,-0.029,0.552,0.997,0.555,0.61,3.021,0.536,0.108,-0.096,0.101,0.279
0.801,0.331,0.719,0.388,-0.524,-0.029,0.554,0.996,0.55,0.607,3.017,0.536,0.107,-0.093,0.106,0.279
0.802,0.334,0.716,0.383,-0.525,-0.025,0.55,0.997,0.555,0.611,3.018,0.539,0.111,-0.09,0.1,0.279
0.803,0.332,0.717,0.386,-0.524,-0.028,0.552,0.996,0.558,0.62,3.029,0.545,0.116,-0.089,0.093,0.278
0.804,0.322,0.718,0.396,-0.519,-0.037,0.557,0.998,0.561,0.623,3.03,0.547,0.118,-0.092,0.093,0.28
0.805,0.316,0.717,0.402,-0.516,-0.043,0.56,1.002,0.558,0.616,3.027,0.544,0.117,-0.097,0.093,0.281
0.806,0.323,0.718,0.395,-0.52,-0.036,0.557,1.002,0.556,0.612,3.028,0.543,0.119,-0.098,0.102,0.278
0.807,0.326,0.711,0.385,-0.518,-0.03,0.548,1.004,0.56,0.616,3.033,0.548,0.122,-0.093,0.098,0.278
0.808,0.322,0.707,0.385,-0.514,-0.032,0.546,1.003,0.558,0.619,3.03,0.547,0.12,-0.092,0.095,0.279
0.809,0.327,0.711,0.385,-0.518,-0.029,0.548,1.004,0.561,0.619,3.031,0.545,0.121,-0.095,0.095,0.281
0.81,0.333,0.715,0.383,-0.524,-0.025,0.549,1.008,0.565,0.62,3.038,0.551,0.126,-0.095,0.089,0.281
0.811,0.332,0.72,0.388,-0.526,-0.029,0.554,1.01,0.565,0.621,3.039,0.548,0.127,-0.097,0.09,0.279
0.812,0.33,0.719,0.39,-0.524,-0.03,0.555,1.007,0.567,0.621,3.041,0.548,0.127,-0.095,0.083,0.279
0.813,0.326,0.718,0.392,-0.522,-0.033,0.555,1.006,0.564,0.62,3.038,0.548,0.124,-0.094,0.086,0.278
0.814,0.328,0.724,0.396,-0.525,-0.035,0.56,1.006,0.562,0.62,3.036,0.549,0.124,-0.091,0.093,0.277
0.815,0.337,0.735,0.398,-0.535,-0.03,0.567,1.012,0.57,0.623,3.039,0.553,0.126,-0.087,0.096,0.275
0.816,0.338,0.74,0.402,-0.539,-0.032,0.572,1.011,0.572,0.625,3.042,0.554,0.129,-0.085,0.102,0.273
0.817,0.338,0.737,0.4,-0.537,-0.031,0.569,1.008,0.577,0.629,3.045,0.557,0.13,-0.081,0.103,0.274
0.818,0.345,0.74,0.395,-0.543,-0.025,0.568,1.01,0.586,0.63,3.041,0.554,0.126,-0.08,0.107,0.272
0.819,0.345,0.743,0.398,-0.544,-0.026,0.571,1.008,0.576,0.626,3.041,0.554,0.128,-0.08,0.106,0.271
0.82,0.342,0.742,0.4,-0.541,-0.029,0.571,1.008,0.578,0.628,3.039,0.556,0.127,-0.077,0.107,0.27
0.821,0.349,0.745,0.396,-0.547,-0.023,0.571,1.006,0.584,0.63,3.036,0.556,0.125,-0.072,0.11,0.27
0.822,0.352,0.747,0.395,-0.549,-0.021,0.572,1.004,0.585,0.63,3.034,0.554,0.126,-0.075,0.106,0.271
0.823,0.361,0.747,0.385,-0.554,-0.012,0.567,1.004,0.59,0.636,3.043,0.558,0.13,-0.072,0.1,0.27
0.824,0.368,0.747,0.379,-0.557,-0.005,0.563,1.012,0.591,0.641,3.053,0.567,0.138,-0.065,0.093,0.268
0.825,0.364,0.746,0.381,-0.555,-0.009,0.564,1.014,0.597,0.643,3.055,0.568,0.14,-0.066,0.098,0.265
0.826,0.368,0.75,0.382,-0.559,-0.007,0.567,1.01,0.597,0.645,3.057,0.57,0.139,-0.068,0.102,0.264
0.827,0.37,0.759,0.39,-0.565,-0.01,0.575,1.012,0.594,0.644,3.058,0.57,0.14,-0.069,0.108,0.262
0.828,0.369,0.759,0.39,-0.565,-0.011,0.575,1.014,0.588,0.642,3.058,0.572,0.14,-0.069,0.11,0.262
0.829,0.365,0.759,0.394,-0.562,-0.014,0.577,1.018,0.595,0.645,3.06,0.572,0.139,-0.07,0.117,0.263
0.83,0.364,0.765,0.401,-0.565,-0.018,0.584,1.02,0.606,0.65,3.067,0.576,0.143,-0.072,0.128,0.259
0.831,0.37,0.77,0.401,-0.57,-0.015,0.586,1.024,0.601,0.648,3.068,0.578,0.145,-0.073,0.131,0.257
0.832,0.373,0.775,0.402,-0.574,-0.014,0.589,1.026,0.601,0.648,3.066,0.575,0.142,-0.074,0.135,0.258
0.833,0.373,0.779,0.406,-0.577,-0.016,0.593,1.018,0.602,0.65,3.063,0.576,0.142,-0.071,0.141,0.26
0.834,0.364,0.778,0.414,-0.571,-0.025,0.597,1.012,0.591,0.642,3.057,0.572,0.139,-0.073,0.145,0.263
0.835,0.363,0.778,0.414,-0.571,-0.025,0.597,1.01,0.584,0.639,3.056,0.572,0.141,-0.072,0.146,0.268
0.836,0.373,0.786,0.413,-0.58,-0.02,0.601,1.006,0.585,0.643,3.058,0.576,0.145,-0.066,0.148,0.272
0.837,0.374,0.787,0.413,-0.581,-0.019,0.601,1.006,0.588,0.645,3.059,0.577,0.145,-0.064,0.145,0.27
0.838,0.374,0.78,0.406,-0.578,-0.015,0.594,1.002,0.589,0.645,3.058,0.578,0.144,-0.064,0.135,0.269
0.839,0.374,0.774,0.401,-0.574,-0.013,0.588,1,0.592,0.648,3.061,0.579,0.142,-0.063,0.135,0.265
0.84,0.377,0.777,0.401,-0.577,-0.012,0.589,1.004,0.594,0.648,3.058,0.577,0.141,-0.061,0.139,0.263
0.841,0.384,0.783,0.399,-0.584,-0.007,0.592,0.997,0.593,0.647,3.057,0.578,0.14,-0.057,0.144,0.264
0.842,0.384,0.786,0.404,-0.585,-0.01,0.596,0.996,0.596,0.651,3.062,0.583,0.144,-0.052,0.15,0.263
0.843,0.381,0.787,0.406,-0.584,-0.013,0.598,0.993,0.596,0.651,3.064,0.585,0.147,-0.054,0.15,0.264
0.844,0.382,0.789,0.408,-0.586,-0.013,0.6,0.987,0.596,0.655,3.072,0.59,0.153,-0.051,0.153,0.265
0.845,0.381,0.788,0.407,-0.584,-0.013,0.598,0.988,0.599,0.658,3.077,0.593,0.157,-0.046,0.152,0.263
0.846,0.383,0.784,0.402,-0.584,-0.009,0.594,0.984,0.604,0.661,3.078,0.594,0.158,-0.044,0.146,0.265
0.847,0.389,0.786,0.398,-0.588,-0.004,0.593,0.977,0.608,0.665,3.083,0.598,0.164,-0.038,0.14,0.268
0.848,0.395,0.79,0.396,-0.592,-0.001,0.593,0.97,0.606,0.666,3.086,0.599,0.166,-0.034,0.133,0.27
0.849,0.395,0.789,0.395,-0.592,0,0.593,0.964,0.603,0.664,3.086,0.598,0.168,-0.033,0.13,0.273
0.85,0.394,0.784,0.391,-0.589,0.002,0.588,0.965,0.608,0.666,3.09,0.6,0.17,-0.033,0.129,0.274
0.851,0.391,0.786,0.396,-0.589,-0.003,0.592,0.961,0.615,0.673,3.097,0.605,0.174,-0.03,0.132,0.274
0.852,0.393,0.794,0.401,-0.594,-0.004,0.598,0.956,0.619,0.676,3.101,0.607,0.177,-0.026,0.141,0.273
0.853,0.393,0.799,0.406,-0.596,-0.007,0.604,0.949,0.61,0.672,3.097,0.603,0.172,-0.029,0.149,0.275
0.854,0.387,0.798,0.411,-0.593,-0.012,0.605,0.933,0.592,0.661,3.087,0.598,0.166,-0.033,0.155,0.281
0.855,0.388,0.793,0.406,-0.591,-0.009,0.601,0.924,0.59,0.66,3.087,0.599,0.165,-0.03,0.157,0.281
0.856,0.39,0.799,0.409,-0.595,-0.01,0.605,0.921,0.586,0.656,3.084,0.599,0.166,-0.029,0.159,0.287
0.857,0.404,0.807,0.403,-0.605,0.001,0.606,0.921,0.596,0.666,3.09,0.603,0.17,-0.023,0.159,0.287
0.858,0.406,0.807,0.402,-0.606,0.003,0.605,0.922,0.604,0.676,3.098,0.609,0.174,-0.023,0.161,0.286
0.859,0.398,0.814,0.415,-0.605,-0.009,0.615,0.924,0.594,0.66,3.091,0.607,0.175,-0.03,0.169,0.288
0.86,0.398,0.812,0.414,-0.605,-0.008,0.614,0.929,0.595,0.666,3.091,0.61,0.178,-0.026,0.172,0.284
0.861,0.393,0.808,0.415,-0.6,-0.011,0.612,0.931,0.588,0.669,3.089,0.61,0.175,-0.029,0.173,0.283
0.862,0.391,0.805,0.414,-0.598,-0.011,0.61,0.93,0.583,0.663,3.084,0.606,0.173,-0.033,0.169,0.286
0.863,0.395,0.801,0.407,-0.598,-0.006,0.605,0.937,0.585,0.665,3.089,0.607,0.173,-0.034,0.166,0.287
0.864,0.392,0.797,0.405,-0.595,-0.006,0.602,0.943,0.584,0.662,3.087,0.605,0.175,-0.036,0.161,0.288
0.865,0.388,0.79,0.403,-0.589,-0.007,0.597,0.945,0.579,0.658,3.086,0.602,0.175,-0.038,0.158,0.287
0.866,0.387,0.784,0.398,-0.586,-0.005,0.592,0.944,0.571,0.652,3.082,0.598,0.17,-0.04,0.153,0.287
0.867,0.391,0.789,0.399,-0.59,-0.004,0.595,0.945,0.571,0.652,3.08,0.598,0.17,-0.038,0.148,0.286
0.868,0.396,0.795,0.4,-0.596,-0.002,0.598,0.952,0.567,0.651,3.082,0.599,0.172,-0.038,0.151,0.287
0.869,0.39,0.78,0.391,-0.585,-0.001,0.586,0.955,0.56,0.646,3.081,0.596,0.172,-0.038,0.141,0.289
0.87,0.386,0.768,0.383,-0.577,0.002,0.576,0.957,0.562,0.648,3.085,0.598,0.175,-0.036,0.129,0.29
0.871,0.391,0.767,0.377,-0.58,0.007,0.573,0.956,0.564,0.648,3.086,0.6,0.176,-0.037,0.118,0.291
0.872,0.397,0.773,0.376,-0.585,0.011,0.575,0.96,0.572,0.649,3.086,0.599,0.177,-0.035,0.114,0.291
0.873,0.399,0.778,0.38,-0.589,0.01,0.58,0.965,0.568,0.644,3.079,0.594,0.172,-0.038,0.121,0.293
0.874,0.391,0.771,0.381,-0.581,0.005,0.577,0.961,0.553,0.634,3.07,0.587,0.167,-0.041,0.126,0.298
0.875,0.383,0.762,0.38,-0.573,0.001,0.572,0.957,0.552,0.63,3.067,0.584,0.165,-0.041,0.131,0.301
0.876,0.381,0.759,0.378,-0.57,0.002,0.569,0.955,0.548,0.628,3.064,0.582,0.16,-0.043,0.127,0.3
0.877,0.382,0.754,0.372,-0.569,0.005,0.564,0.956,0.549,0.629,3.063,0.582,0.161,-0.041,0.122,0.3
0.878,0.383,0.749,0.366,-0.566,0.009,0.558,0.967,0.555,0.629,3.062,0.582,0.161,-0.044,0.119,0.297
0.879,0.38,0.743,0.363,-0.561,0.009,0.553,0.974,0.567,0.632,3.06,0.58,0.157,-0.049,0.107,0.295
0.88,0.377,0.738,0.361,-0.557,0.008,0.549,0.972,0.555,0.626,3.053,0.574,0.15,-0.053,0.099,0.293
0.881,0.373,0.731,0.357,-0.552,0.008,0.545,0.976,0.549,0.617,3.041,0.566,0.142,-0.06,0.098,0.294
0.882,0.37,0.719,0.348,-0.544,0.011,0.534,0.981,0.572,0.622,3.041,0.566,0.14,-0.064,0.093,0.296
0.883,0.373,0.717,0.344,-0.545,0.015,0.53,0.983,0.552,0.618,3.044,0.567,0.143,-0.064,0.083,0.295
0.884,0.372,0.712,0.341,-0.542,0.016,0.526,0.987,0.548,0.614,3.042,0.565,0.142,-0.07,0.075,0.297
0.885,0.365,0.707,0.342,-0.536,0.011,0.525,0.993,0.566,0.625,3.045,0.566,0.142,-0.071,0.074,0.296
0.886,0.359,0.707,0.347,-0.533,0.006,0.527,0.994,0.558,0.617,3.042,0.563,0.141,-0.074,0.086,0.296
0.887,0.359,0.707,0.347,-0.533,0.006,0.527,0.994,0.557,0.612,3.037,0.559,0.138,-0.079,0.089,0.297
0.888,0.363,0.709,0.346,-0.536,0.008,0.528,0.993,0.555,0.613,3.037,0.559,0.137,-0.079,0.085,0.297
0.889,0.362,0.706,0.343,-0.534,0.009,0.525,0.997,0.556,0.612,3.038,0.557,0.135,-0.081,0.078,0.296
0.89,0.361,0.698,0.337,-0.529,0.013,0.517,1.004,0.564,0.618,3.045,0.561,0.14,-0.079,0.064,0.294
0.891,0.345,0.691,0.346,-0.518,-0.001,0.518,1.008,0.569,0.615,3.047,0.56,0.141,-0.085,0.058,0.29
0.892,0.325,0.692,0.366,-0.508,-0.021,0.529,1.012,0.571,0.614,3.042,0.555,0.136,-0.091,0.06,0.286
0.893,0.324,0.698,0.373,-0.51,-0.025,0.536,1.016,0.572,0.613,3.038,0.553,0.13,-0.095,0.073,0.281
0.894,0.324,0.699,0.374,-0.511,-0.025,0.537,1.016,0.576,0.614,3.037,0.55,0.123,-0.099,0.083,0.278
0.895,0.324,0.7,0.376,-0.511,-0.026,0.538,1.011,0.574,0.613,3.034,0.549,0.12,-0.097,0.08,0.282
0.896,0.321,0.697,0.377,-0.509,-0.028,0.537,1.014,0.567,0.606,3.027,0.543,0.116,-0.102,0.079,0.284
0.897,0.315,0.692,0.378,-0.503,-0.032,0.535,1.014,0.565,0.603,3.022,0.537,0.11,-0.108,0.075,0.283
0.898,0.313,0.689,0.376,-0.501,-0.032,0.533,1.015,0.565,0.6,3.018,0.534,0.106,-0.108,0.072,0.282
0.899,0.312,0.687,0.375,-0.499,-0.032,0.531,1.016,0.56,0.597,3.013,0.532,0.103,-0.109,0.071,0.284
0.9,0.312,0.685,0.373,-0.498,-0.03,0.529,1.016,0.553,0.595,3.008,0.53,0.101,-0.112,0.07,0.283
0.901,0.313,0.684,0.371,-0.498,-0.029,0.528,1,0.549,0.592,3.003,0.529,0.1,-0.112,0.069,0.29
0.902,0.312,0.687,0.376,-0.499,-0.032,0.532,0.999,0.548,0.59,3.003,0.528,0.1,-0.112,0.07,0.292
0.903,0.315,0.688,0.374,-0.501,-0.03,0.531,1.022,0.557,0.595,3.01,0.532,0.106,-0.111,0.073,0.289
0.904,0.317,0.685,0.368,-0.501,-0.026,0.527,1.02,0.557,0.595,3.014,0.534,0.11,-0.106,0.07,0.292
0.905,0.315,0.686,0.371,-0.5,-0.028,0.529,1.018,0.556,0.593,3.012,0.534,0.107,-0.11,0.07,0.29
0.906,0.319,0.694,0.375,-0.506,-0.028,0.535,1.02,0.554,0.594,3.011,0.535,0.108,-0.11,0.071,0.29
0.907,0.32,0.694,0.374,-0.507,-0.027,0.534,1.019,0.549,0.592,3.01,0.535,0.11,-0.108,0.069,0.289
0.908,0.314,0.69,0.376,-0.501,-0.031,0.533,1.024,0.558,0.596,3.016,0.537,0.112,-0.105,0.075,0.288
0.909,0.311,0.688,0.377,-0.499,-0.033,0.532,1.019,0.559,0.596,3.018,0.538,0.114,-0.102,0.076,0.294
0.91,0.306,0.684,0.378,-0.495,-0.036,0.532,1.022,0.556,0.596,3.019,0.538,0.115,-0.106,0.069,0.293
0.911,0.307,0.685,0.379,-0.496,-0.035,0.532,1.022,0.554,0.597,3.022,0.54,0.118,-0.105,0.068,0.292
0.912,0.309,0.688,0.379,-0.498,-0.035,0.534,1.017,0.554,0.593,3.018,0.538,0.115,-0.104,0.07,0.289
0.913,0.304,0.685,0.382,-0.495,-0.038,0.534,1.022,0.556,0.593,3.014,0.535,0.112,-0.104,0.072,0.287
0.914,0.301,0.682,0.382,-0.492,-0.04,0.532,1.02,0.554,0.594,3.015,0.537,0.114,-0.101,0.07,0.291
0.915,0.298,0.68,0.381,-0.489,-0.041,0.531,1.016,0.553,0.595,3.014,0.538,0.113,-0.103,0.069,0.292
0.916,0.298,0.688,0.39,-0.493,-0.045,0.539,1.016,0.552,0.595,3.014,0.539,0.113,-0.102,0.075,0.293
0.917,0.297,0.689,0.391,-0.493,-0.046,0.54,1.014,0.552,0.592,3.013,0.537,0.111,-0.103,0.078,0.292
0.918,0.296,0.677,0.381,-0.487,-0.042,0.529,1.012,0.546,0.591,3.009,0.534,0.107,-0.105,0.072,0.291
0.919,0.293,0.675,0.381,-0.484,-0.044,0.528,1.013,0.546,0.591,3.006,0.533,0.107,-0.105,0.072,0.289
0.92,0.288,0.674,0.386,-0.481,-0.049,0.53,1.01,0.545,0.586,3,0.528,0.101,-0.111,0.078,0.289
0.921,0.285,0.67,0.385,-0.478,-0.05,0.527,1.008,0.54,0.586,2.999,0.53,0.1,-0.111,0.083,0.289
0.922,0.288,0.665,0.377,-0.476,-0.044,0.521,1.001,0.536,0.587,3.001,0.532,0.102,-0.107,0.075,0.292
0.923,0.296,0.672,0.375,-0.484,-0.039,0.524,1.01,0.538,0.588,3.002,0.531,0.102,-0.106,0.073,0.294
0.924,0.3,0.669,0.369,-0.485,-0.035,0.519,1.019,0.547,0.592,3.007,0.534,0.107,-0.106,0.068,0.292
0.925,0.298,0.664,0.365,-0.481,-0.033,0.515,1.013,0.544,0.591,3.008,0.535,0.109,-0.11,0.062,0.293
0.926,0.298,0.662,0.364,-0.48,-0.033,0.513,1.02,0.549,0.593,3.01,0.537,0.109,-0.11,0.061,0.288
0.927,0.292,0.657,0.365,-0.475,-0.036,0.512,1.016,0.545,0.591,3.01,0.535,0.106,-0.111,0.062,0.29
0.928,0.286,0.653,0.367,-0.469,-0.041,0.511,1.012,0.545,0.591,3.011,0.534,0.105,-0.109,0.064,0.293
0.929,0.282,0.647,0.365,-0.465,-0.042,0.507,1.02,0.56,0.598,3.016,0.537,0.11,-0.108,0.058,0.29
0.93,0.286,0.654,0.368,-0.47,-0.042,0.512,1.023,0.555,0.6,3.023,0.542,0.117,-0.109,0.057,0.291
0.931,0.289,0.656,0.366,-0.473,-0.038,0.512,1.028,0.558,0.604,3.029,0.544,0.119,-0.108,0.056,0.292
0.932,0.284,0.652,0.367,-0.469,-0.042,0.51,1.022,0.556,0.602,3.023,0.541,0.116,-0.108,0.056,0.294
0.933,0.281,0.65,0.369,-0.465,-0.044,0.51,1.016,0.551,0.595,3.017,0.536,0.113,-0.108,0.058,0.296
0.934,0.276,0.65,0.374,-0.464,-0.049,0.513,1.02,0.55,0.59,3.01,0.532,0.108,-0.111,0.066,0.294
0.935,0.278,0.656,0.379,-0.467,-0.05,0.517,1.024,0.549,0.592,3.011,0.533,0.106,-0.114,0.065,0.292
0.936,0.287,0.662,0.375,-0.475,-0.044,0.519,1.019,0.548,0.594,3.014,0.535,0.106,-0.112,0.059,0.293
0.937,0.286,0.663,0.377,-0.475,-0.045,0.52,1.017,0.554,0.593,3.011,0.534,0.107,-0.109,0.065,0.294
0.938,0.285,0.66,0.375,-0.473,-0.045,0.518,1.016,0.558,0.593,3.011,0.532,0.106,-0.108,0.067,0.293
0.939,0.284,0.659,0.375,-0.471,-0.045,0.517,1.01,0.544,0.587,3.005,0.529,0.102,-0.111,0.071,0.293
0.94,0.281,0.654,0.373,-0.469,-0.045,0.514,1.012,0.543,0.583,2.998,0.523,0.095,-0.112,0.075,0.293
0.941,0.295,0.66,0.365,-0.477,-0.035,0.513,1.006,0.543,0.582,2.995,0.521,0.094,-0.107,0.074,0.296
0.942,0.305,0.667,0.361,-0.486,-0.028,0.515,1.005,0.541,0.583,2.997,0.525,0.099,-0.105,0.077,0.297
0.943,0.302,0.666,0.363,-0.484,-0.03,0.515,1.01,0.544,0.586,3.001,0.527,0.1,-0.108,0.075,0.296
0.944,0.292,0.659,0.366,-0.476,-0.036,0.513,1.012,0.546,0.588,3.004,0.527,0.1,-0.111,0.069,0.296
0.945,0.295,0.663,0.368,-0.479,-0.036,0.516,1.014,0.548,0.59,3.006,0.529,0.104,-0.113,0.069,0.295
0.946,0.302,0.668,0.366,-0.485,-0.032,0.518,1.017,0.551,0.596,3.011,0.535,0.11,-0.109,0.066,0.295
0.947,0.305,0.666,0.361,-0.485,-0.028,0.514,1.016,0.548,0.595,3.012,0.532,0.11,-0.106,0.061,0.295
0.948,0.307,0.671,0.363,-0.489,-0.028,0.517,1.011,0.546,0.59,3.01,0.53,0.106,-0.107,0.065,0.294
0.949,0.306,0.674,0.368,-0.49,-0.03,0.521,1.01,0.544,0.589,3.01,0.53,0.105,-0.108,0.07,0.295
0.95,0.31,0.678,0.367,-0.494,-0.029,0.523,1.014,0.554,0.595,3.014,0.533,0.109,-0.107,0.065,0.294
0.951,0.304,0.671,0.367,-0.488,-0.032,0.52,1.02,0.565,0.603,3.022,0.539,0.115,-0.109,0.06,0.292
0.952,0.294,0.667,0.373,-0.481,-0.04,0.521,1.017,0.551,0.599,3.021,0.539,0.113,-0.113,0.064,0.293
0.953,0.293,0.669,0.376,-0.481,-0.042,0.523,1.014,0.55,0.597,3.017,0.538,0.11,-0.112,0.066,0.295
0.954,0.283,0.661,0.378,-0.472,-0.048,0.52,1.012,0.549,0.593,3.011,0.533,0.105,-0.113,0.067,0.295
0.955,0.286,0.665,0.38,-0.475,-0.047,0.523,1.006,0.544,0.588,3.007,0.529,0.102,-0.113,0.063,0.295
0.956,0.3,0.678,0.378,-0.489,-0.038,0.528,1.008,0.547,0.591,3.01,0.533,0.104,-0.109,0.063,0.296
0.957,0.301,0.674,0.373,-0.487,-0.036,0.524,1.008,0.545,0.592,3.01,0.533,0.104,-0.108,0.062,0.296
0.958,0.3,0.664,0.364,-0.482,-0.032,0.515,1.001,0.538,0.585,3.003,0.527,0.101,-0.107,0.059,0.296
0.959,0.296,0.661,0.364,-0.478,-0.034,0.513,1,0.537,0.584,2.999,0.526,0.099,-0.106,0.065,0.295
0.96,0.298,0.663,0.365,-0.481,-0.034,0.515,0.998,0.543,0.586,2.998,0.526,0.096,-0.107,0.071,0.295
0.961,0.298,0.664,0.365,-0.481,-0.033,0.515,0.995,0.544,0.584,2.992,0.523,0.092,-0.107,0.076,0.296
0.962,0.298,0.667,0.368,-0.483,-0.035,0.518,1,0.537,0.582,2.995,0.525,0.097,-0.103,0.073,0.297
0.963,0.297,0.667,0.369,-0.482,-0.036,0.519,1.004,0.539,0.586,3.002,0.53,0.105,-0.102,0.07,0.296
0.964,0.294,0.663,0.369,-0.479,-0.037,0.516,1.006,0.545,0.589,3.006,0.532,0.107,-0.102,0.067,0.297
0.965,0.294,0.661,0.367,-0.478,-0.036,0.514,1.007,0.541,0.584,3.004,0.529,0.107,-0.102,0.064,0.298
0.966,0.292,0.66,0.367,-0.476,-0.037,0.514,1.004,0.537,0.583,3.002,0.527,0.105,-0.104,0.061,0.297
0.967,0.296,0.663,0.367,-0.48,-0.035,0.515,1.007,0.546,0.589,3.004,0.53,0.105,-0.104,0.064,0.295
0.968,0.293,0.663,0.37,-0.478,-0.038,0.517,1.008,0.542,0.588,3.002,0.528,0.105,-0.105,0.063,0.297
0.969,0.296,0.664,0.367,-0.48,-0.035,0.516,1.006,0.536,0.585,3.002,0.526,0.106,-0.106,0.06,0.299
0.97,0.302,0.663,0.361,-0.482,-0.03,0.513,1.014,0.562,0.597,3.011,0.534,0.112,-0.103,0.057,0.294
0.971,0.29,0.66,0.37,-0.475,-0.04,0.516,1.018,0.561,0.6,3.017,0.538,0.114,-0.103,0.056,0.295
0.972,0.284,0.66,0.376,-0.472,-0.046,0.518,1.012,0.543,0.59,3.013,0.533,0.111,-0.106,0.067,0.297
0.973,0.283,0.66,0.377,-0.472,-0.047,0.519,1.006,0.539,0.585,3.004,0.528,0.104,-0.107,0.062,0.296
0.974,0.284,0.663,0.379,-0.474,-0.047,0.521,1.006,0.54,0.581,3.001,0.523,0.102,-0.106,0.057,0.296
0.975,0.293,0.668,0.375,-0.48,-0.042,0.522,1.006,0.543,0.583,3.002,0.524,0.103,-0.104,0.066,0.298
0.976,0.297,0.672,0.375,-0.484,-0.039,0.524,1.005,0.541,0.585,3.003,0.525,0.104,-0.105,0.069,0.299
0.977,0.293,0.672,0.379,-0.482,-0.043,0.526,1.008,0.542,0.585,3.002,0.526,0.102,-0.107,0.061,0.298
0.978,0.292,0.672,0.38,-0.482,-0.043,0.526,1.006,0.54,0.583,3,0.524,0.1,-0.11,0.063,0.296
0.979,0.299,0.676,0.377,-0.487,-0.039,0.527,1.008,0.542,0.584,3,0.524,0.101,-0.109,0.074,0.295
0.98,0.302,0.677,0.374,-0.489,-0.035,0.526,1.006,0.541,0.586,2.999,0.524,0.099,-0.107,0.081,0.295
0.981,0.3,0.673,0.372,-0.487,-0.035,0.523,1.004,0.541,0.588,2.997,0.523,0.099,-0.107,0.082,0.294
0.982,0.296,0.665,0.369,-0.481,-0.036,0.518,1.008,0.545,0.591,3,0.527,0.1,-0.107,0.07,0.292
0.983,0.298,0.657,0.36,-0.477,-0.031,0.509,1.01,0.559,0.599,3.005,0.529,0.104,-0.106,0.062,0.291
0.984,0.298,0.651,0.352,-0.475,-0.027,0.502,1.013,0.565,0.603,3.007,0.53,0.104,-0.11,0.054,0.287
0.985,0.301,0.649,0.348,-0.475,-0.024,0.499,1.016,0.554,0.604,3.01,0.532,0.105,-0.11,0.047,0.285
0.986,0.311,0.648,0.338,-0.48,-0.013,0.493,1.016,0.566,0.612,3.017,0.539,0.113,-0.1,0.04,0.284
0.987,0.321,0.646,0.326,-0.483,-0.003,0.486,1.016,0.586,0.622,3.026,0.547,0.119,-0.091,0.038,0.281
0.988,0.324,0.642,0.319,-0.483,0.003,0.481,1.022,0.597,0.635,3.034,0.55,0.122,-0.089,0.034,0.275
0.989,0.323,0.638,0.315,-0.48,0.004,0.476,1.028,0.608,0.648,3.042,0.555,0.123,-0.089,0.021,0.268
0.99,0.325,0.63,0.305,-0.477,0.011,0.468,1.03,0.619,0.657,3.051,0.565,0.13,-0.084,0.013,0.264
0.991,0.329,0.631,0.302,-0.479,0.013,0.467,1.038,0.627,0.664,3.058,0.569,0.134,-0.081,0.011,0.258
0.992,0.331,0.636,0.305,-0.483,0.013,0.471,1.042,0.629,0.669,3.062,0.574,0.135,-0.076,0.019,0.256
0.993,0.335,0.64,0.306,-0.487,0.014,0.473,1.034,0.628,0.672,3.062,0.577,0.135,-0.07,0.024,0.257
0.994,0.342,0.651,0.309,-0.496,0.017,0.48,1.03,0.628,0.671,3.057,0.572,0.128,-0.072,0.029,0.255
0.995,0.344,0.663,0.32,-0.503,0.012,0.492,1.024,0.63,0.677,3.058,0.572,0.123,-0.073,0.035,0.248
0.996,0.349,0.683,0.333,-0.516,0.009,0.508,1.014,0.625,0.68,3.066,0.58,0.129,-0.066,0.056,0.245
0.997,0.359,0.701,0.342,-0.53,0.009,0.521,1.011,0.615,0.681,3.075,0.588,0.137,-0.058,0.07,0.244
0.998,0.352,0.719,0.366,-0.535,-0.007,0.543,1.006,0.615,0.691,3.087,0.6,0.145,-0.049,0.077,0.242
0.999,0.349,0.735,0.386,-0.542,-0.018,0.561,0.995,0.6,0.686,3.087,0.602,0.148,-0.043,0.086,0.245
1,0.354,0.746,0.392,-0.55,-0.019,0.57,0.985,0.592,0.682,3.083,0.601,0.146,-0.04,0.095,0.243
1.001,0.372,0.755,0.383,-0.564,-0.005,0.57,0.978,0.607,0.697,3.1,0.621,0.165,-0.018,0.102,0.239
1.002,0.395,0.757,0.363,-0.577,0.016,0.561,0.968,0.613,0.715,3.132,0.652,0.192,0.013,0.093,0.237
1.003,0.408,0.749,0.34,-0.579,0.034,0.545,0.97,0.624,0.735,3.161,0.678,0.216,0.034,0.074,0.234
1.004,0.422,0.748,0.325,-0.585,0.049,0.537,0.975,0.645,0.764,3.196,0.711,0.242,0.057,0.068,0.227
1.005,0.443,0.753,0.311,-0.598,0.066,0.532,0.969,0.671,0.804,3.244,0.757,0.272,0.09,0.071,0.218
1.006,0.469,0.751,0.282,-0.61,0.094,0.517,0.961,0.695,0.852,3.298,0.809,0.309,0.13,0.059,0.206
1.007,0.487,0.754,0.268,-0.621,0.11,0.511,0.958,0.719,0.913,3.367,0.874,0.356,0.176,0.06,0.191
1.008,0.518,0.754,0.236,-0.636,0.141,0.496,0.951,0.743,0.967,3.432,0.936,0.404,0.226,0.054,0.185
1.009,0.56,0.757,0.198,-0.658,0.181,0.478,0.935,0.76,1.01,3.486,0.99,0.451,0.273,0.043,0.183
1.01,0.589,0.762,0.173,-0.674,0.207,0.469,0.932,0.802,1.081,3.561,1.06,0.506,0.329,0.038,0.166
1.011,0.612,0.767,0.156,-0.689,0.228,0.462,0.94,0.855,1.159,3.639,1.13,0.559,0.379,0.04,0.141
1.012,0.622,0.774,0.152,-0.697,0.234,0.464,0.942,0.897,1.228,3.703,1.188,0.602,0.417,0.053,0.117
1.013,0.641,0.789,0.148,-0.715,0.246,0.469,0.941,0.931,1.295,3.775,1.256,0.653,0.469,0.062,0.096
1.014,0.667,0.81,0.144,-0.738,0.262,0.477,0.939,0.953,1.347,3.841,1.321,0.707,0.521,0.086,0.083
1.015,0.665,0.84,0.174,-0.752,0.245,0.507,0.935,0.956,1.378,3.894,1.373,0.75,0.554,0.129,0.072
1.016,0.659,0.891,0.233,-0.775,0.213,0.563,0.921,0.931,1.395,3.948,1.428,0.796,0.589,0.188,0.067
1.017,0.655,0.941,0.285,-0.797,0.185,0.614,0.909,0.902,1.402,3.994,1.48,0.842,0.622,0.248,0.065
1.018,0.653,0.997,0.344,-0.825,0.154,0.671,0.891,0.853,1.391,4.038,1.534,0.891,0.654,0.312,0.066
1.019,0.642,1.081,0.438,-0.861,0.102,0.76,0.86,0.763,1.332,4.046,1.562,0.928,0.675,0.403,0.086
1.02,0.632,1.159,0.526,-0.895,0.053,0.843,0.832,0.667,1.255,4.04,1.579,0.958,0.686,0.484,0.123
1.021,0.619,1.232,0.613,-0.925,0.003,0.923,0.8,0.567,1.176,4.029,1.59,0.986,0.696,0.563,0.17
1.022,0.585,1.296,0.712,-0.941,-0.063,1.004,0.778,0.473,1.097,4.01,1.581,0.994,0.684,0.635,0.207
1.023,0.546,1.342,0.796,-0.944,-0.125,1.069,0.766,0.393,1.016,3.985,1.569,0.999,0.663,0.69,0.244
1.024,0.486,1.369,0.882,-0.927,-0.199,1.127,0.767,0.325,0.943,3.958,1.554,0.994,0.635,0.744,0.276
1.025,0.436,1.355,0.919,-0.894,-0.241,1.137,0.788,0.311,0.914,3.957,1.554,0.982,0.612,0.752,0.284
1.026,0.396,1.357,0.961,-0.876,-0.282,1.159,0.805,0.29,0.871,3.94,1.542,0.967,0.587,0.769,0.291
1.027,0.363,1.381,1.018,-0.872,-0.328,1.2,0.798,0.234,0.81,3.925,1.539,0.963,0.571,0.809,0.315
1.028,0.337,1.393,1.056,-0.864,-0.36,1.224,0.781,0.178,0.749,3.909,1.536,0.962,0.561,0.835,0.349
1.029,0.31,1.38,1.07,-0.845,-0.38,1.226,0.787,0.15,0.707,3.895,1.53,0.959,0.551,0.835,0.369
1.03,0.306,1.333,1.026,-0.819,-0.36,1.18,0.805,0.185,0.712,3.904,1.537,0.955,0.543,0.788,0.369
1.031,0.3,1.282,0.981,-0.79,-0.34,1.132,0.831,0.219,0.714,3.892,1.52,0.929,0.519,0.74,0.371
1.032,0.283,1.216,0.933,-0.749,-0.325,1.075,0.867,0.24,0.705,3.849,1.472,0.876,0.471,0.687,0.376
1.033,0.249,1.123,0.874,-0.686,-0.312,1,0.902,0.278,0.683,3.764,1.376,0.78,0.388,0.616,0.376
1.034,0.217,1.03,0.812,-0.623,-0.297,0.921,0.946,0.298,0.641,3.661,1.262,0.678,0.293,0.545,0.381
1.035,0.192,0.947,0.755,-0.57,-0.281,0.852,0.975,0.307,0.586,3.554,1.153,0.591,0.21,0.479,0.409
1.036,0.168,0.887,0.72,-0.527,-0.276,0.804,0.984,0.301,0.516,3.434,1.033,0.498,0.125,0.43,0.453
1.037,0.136,0.847,0.711,-0.491,-0.287,0.779,0.999,0.303,0.448,3.305,0.899,0.396,0.027,0.397,0.487
1.038,0.092,0.804,0.712,-0.448,-0.31,0.758,1.014,0.306,0.367,3.151,0.739,0.279,-0.085,0.373,0.524
1.039,0.048,0.769,0.722,-0.408,-0.337,0.746,1.016,0.28,0.254,2.954,0.54,0.144,-0.213,0.36,0.58
1.04,-0.011,0.734,0.745,-0.361,-0.378,0.74,1.038,0.267,0.133,2.732,0.311,-0.018,-0.363,0.339,0.62
1.041,-0.081,0.693,0.773,-0.306,-0.427,0.733,1.079,0.264,0.001,2.483,0.052,-0.195,-0.533,0.312,0.655
1.042,-0.126,0.657,0.782,-0.266,-0.454,0.72,1.098,0.247,-0.113,2.29,-0.142,-0.315,-0.655,0.289,0.696
1.043,-0.142,0.617,0.759,-0.237,-0.451,0.689,1.105,0.225,-0.171,2.216,-0.211,-0.361,-0.704,0.253,0.719
1.044,-0.155,0.582,0.737,-0.213,-0.446,0.659,1.111,0.193,-0.2,2.192,-0.231,-0.382,-0.725,0.217,0.728
1.045,-0.148,0.556,0.705,-0.203,-0.426,0.631,1.119,0.185,-0.205,2.192,-0.23,-0.39,-0.728,0.184,0.725
1.046,-0.145,0.517,0.662,-0.186,-0.404,0.591,1.132,0.195,-0.203,2.197,-0.223,-0.395,-0.728,0.14,0.719
1.047,-0.142,0.486,0.628,-0.172,-0.385,0.558,1.128,0.188,-0.201,2.21,-0.208,-0.391,-0.717,0.11,0.718
1.048,-0.122,0.472,0.595,-0.175,-0.358,0.533,1.111,0.176,-0.186,2.24,-0.177,-0.368,-0.688,0.088,0.72
1.049,-0.1,0.463,0.563,-0.181,-0.332,0.513,1.102,0.173,-0.161,2.279,-0.138,-0.341,-0.656,0.059,0.708
1.05,-0.072,0.461,0.533,-0.194,-0.302,0.497,1.105,0.185,-0.126,2.322,-0.097,-0.312,-0.626,0.037,0.693
1.051,-0.053,0.46,0.513,-0.203,-0.283,0.487,1.097,0.193,-0.099,2.356,-0.067,-0.293,-0.602,0.022,0.685
1.052,-0.036,0.462,0.497,-0.213,-0.267,0.48,1.069,0.174,-0.088,2.375,-0.045,-0.281,-0.582,0.013,0.691
1.053,-0.024,0.464,0.488,-0.22,-0.256,0.476,1.04,0.147,-0.086,2.388,-0.03,-0.271,-0.565,0.013,0.7
1.054,-0.011,0.463,0.474,-0.226,-0.242,0.469,1.025,0.145,-0.073,2.405,-0.015,-0.26,-0.545,0.009,0.695
1.055,0.004,0.459,0.455,-0.231,-0.226,0.457,1.02,0.154,-0.049,2.428,0.009,-0.245,-0.523,0.001,0.692
1.056,0.017,0.457,0.44,-0.236,-0.211,0.449,1.022,0.193,-0.017,2.453,0.032,-0.232,-0.505,-0.011,0.682
1.057,0.038,0.463,0.424,-0.251,-0.193,0.444,1.038,0.234,0.017,2.478,0.059,-0.213,-0.481,-0.019,0.662
1.058,0.051,0.476,0.424,-0.264,-0.186,0.451,1.051,0.238,0.038,2.501,0.08,-0.197,-0.464,-0.013,0.641
1.059,0.065,0.485,0.421,-0.275,-0.178,0.454,1.054,0.261,0.068,2.525,0.101,-0.182,-0.444,-0.013,0.625
1.06,0.09,0.502,0.411,-0.296,-0.161,0.457,1.03,0.275,0.1,2.554,0.129,-0.165,-0.415,-0.011,0.622
1.061,0.118,0.519,0.401,-0.319,-0.141,0.461,1.008,0.285,0.126,2.579,0.152,-0.148,-0.391,-0.004,0.616
1.062,0.141,0.526,0.385,-0.334,-0.122,0.456,0.999,0.314,0.162,2.611,0.183,-0.127,-0.363,-0.008,0.601
1.063,0.161,0.539,0.379,-0.35,-0.109,0.459,0.992,0.344,0.203,2.652,0.218,-0.101,-0.335,-0.009,0.582
1.064,0.178,0.554,0.377,-0.366,-0.099,0.466,0.988,0.376,0.245,2.689,0.251,-0.079,-0.308,-0.005,0.559
1.065,0.199,0.573,0.374,-0.386,-0.087,0.473,0.989,0.413,0.288,2.725,0.281,-0.057,-0.285,0.006,0.531
1.066,0.22,0.593,0.373,-0.406,-0.076,0.483,0.985,0.45,0.329,2.76,0.311,-0.036,-0.263,0.013,0.504
1.067,0.234,0.611,0.377,-0.422,-0.071,0.494,0.98,0.481,0.367,2.793,0.339,-0.019,-0.242,0.023,0.479
1.068,0.253,0.633,0.381,-0.443,-0.064,0.507,0.986,0.52,0.41,2.825,0.363,-0.002,-0.223,0.033,0.451
1.069,0.269,0.641,0.373,-0.455,-0.052,0.507,0.998,0.556,0.447,2.857,0.388,0.014,-0.205,0.028,0.426
1.07,0.277,0.643,0.366,-0.461,-0.044,0.505,1.018,0.587,0.475,2.883,0.407,0.027,-0.195,0.024,0.405
1.071,0.287,0.648,0.361,-0.468,-0.037,0.505,1.024,0.616,0.501,2.905,0.427,0.042,-0.179,0.022,0.386
1.072,0.292,0.644,0.352,-0.468,-0.03,0.499,1.024,0.642,0.524,2.92,0.442,0.049,-0.168,0.019,0.369
1.073,0.295,0.646,0.351,-0.47,-0.028,0.499,1.04,0.659,0.539,2.926,0.45,0.051,-0.162,0.021,0.354
1.074,0.302,0.65,0.348,-0.476,-0.023,0.499,1.048,0.666,0.555,2.939,0.461,0.059,-0.15,0.027,0.341
1.075,0.31,0.654,0.344,-0.482,-0.017,0.5,1.048,0.676,0.574,2.954,0.476,0.07,-0.139,0.029,0.331
1.076,0.314,0.658,0.344,-0.485,-0.015,0.501,1.046,0.683,0.587,2.962,0.484,0.074,-0.133,0.028,0.323
1.077,0.311,0.656,0.345,-0.484,-0.017,0.501,1.044,0.686,0.596,2.973,0.492,0.08,-0.128,0.027,0.316
1.078,0.314,0.657,0.343,-0.485,-0.015,0.5,1.046,0.696,0.609,2.983,0.505,0.085,-0.121,0.036,0.307
1.079,0.321,0.661,0.34,-0.491,-0.009,0.501,1.038,0.695,0.614,2.986,0.507,0.086,-0.117,0.048,0.304
1.08,0.322,0.664,0.342,-0.493,-0.01,0.503,1.032,0.685,0.615,2.984,0.507,0.085,-0.115,0.052,0.301
1.081,0.323,0.666,0.344,-0.494,-0.011,0.505,1.034,0.683,0.623,2.99,0.514,0.086,-0.114,0.057,0.293
1.082,0.326,0.673,0.347,-0.499,-0.011,0.51,1.038,0.687,0.63,2.998,0.518,0.092,-0.113,0.054,0.289
1.083,0.332,0.677,0.346,-0.504,-0.007,0.512,1.04,0.682,0.635,3.006,0.525,0.099,-0.111,0.053,0.29
1.084,0.335,0.675,0.341,-0.505,-0.003,0.508,1.041,0.68,0.639,3.013,0.531,0.105,-0.105,0.053,0.288
1.085,0.331,0.677,0.346,-0.504,-0.007,0.512,1.046,0.674,0.636,3.014,0.532,0.107,-0.108,0.051,0.285
1.086,0.33,0.676,0.347,-0.503,-0.009,0.512,1.046,0.668,0.637,3.015,0.534,0.107,-0.11,0.045,0.283
1.087,0.328,0.67,0.343,-0.499,-0.008,0.507,1.046,0.667,0.638,3.017,0.535,0.108,-0.107,0.045,0.281
1.088,0.323,0.675,0.353,-0.499,-0.015,0.514,1.048,0.66,0.637,3.018,0.537,0.112,-0.108,0.059,0.281
1.089,0.326,0.682,0.356,-0.504,-0.015,0.52,1.05,0.664,0.643,3.027,0.544,0.12,-0.103,0.062,0.281
1.09,0.334,0.687,0.354,-0.51,-0.01,0.521,1.056,0.667,0.65,3.038,0.552,0.129,-0.098,0.058,0.28
1.091,0.333,0.693,0.36,-0.512,-0.014,0.527,1.055,0.662,0.652,3.042,0.555,0.131,-0.096,0.059,0.278
1.092,0.327,0.689,0.362,-0.508,-0.018,0.526,1.049,0.661,0.654,3.044,0.557,0.131,-0.096,0.061,0.277
1.093,0.327,0.689,0.363,-0.508,-0.018,0.526,1.044,0.653,0.651,3.039,0.555,0.127,-0.094,0.069,0.277
1.094,0.327,0.694,0.367,-0.51,-0.02,0.531,1.038,0.631,0.643,3.034,0.552,0.126,-0.092,0.07,0.277
1.095,0.327,0.697,0.37,-0.511,-0.022,0.534,1.032,0.625,0.646,3.04,0.56,0.133,-0.088,0.066,0.278
1.096,0.327,0.701,0.374,-0.513,-0.024,0.538,1.022,0.615,0.647,3.044,0.564,0.133,-0.085,0.073,0.279
1.097,0.324,0.7,0.377,-0.511,-0.026,0.538,1.017,0.599,0.643,3.042,0.559,0.132,-0.083,0.082,0.279
1.098,0.318,0.697,0.379,-0.507,-0.03,0.538,1.016,0.598,0.642,3.038,0.556,0.128,-0.084,0.088,0.278
1.099,0.322,0.703,0.38,-0.512,-0.029,0.541,1.015,0.594,0.642,3.037,0.555,0.128,-0.083,0.094,0.277
1.1,0.332,0.708,0.376,-0.52,-0.022,0.542,1.015,0.596,0.646,3.037,0.557,0.129,-0.079,0.097,0.276
1.101,0.332,0.708,0.376,-0.52,-0.022,0.542,1.012,0.591,0.645,3.035,0.558,0.128,-0.077,0.096,0.278
1.102,0.331,0.707,0.376,-0.518,-0.022,0.541,1.009,0.583,0.644,3.038,0.56,0.132,-0.076,0.091,0.278
1.103,0.333,0.703,0.37,-0.517,-0.019,0.537,1.012,0.586,0.648,3.043,0.565,0.136,-0.074,0.085,0.277
1.104,0.338,0.704,0.366,-0.521,-0.014,0.535,1.014,0.588,0.649,3.049,0.567,0.14,-0.072,0.088,0.277
1.105,0.34,0.706,0.365,-0.523,-0.013,0.535,1.014,0.592,0.653,3.054,0.573,0.143,-0.068,0.091,0.275
1.106,0.337,0.705,0.368,-0.521,-0.015,0.536,1.014,0.595,0.657,3.058,0.578,0.145,-0.067,0.092,0.274
1.107,0.336,0.704,0.368,-0.52,-0.016,0.536,1.014,0.596,0.663,3.067,0.582,0.151,-0.064,0.098,0.273
1.108,0.333,0.703,0.37,-0.517,-0.019,0.537,1.016,0.595,0.662,3.067,0.583,0.15,-0.064,0.088,0.273
1.109,0.328,0.702,0.373,-0.514,-0.023,0.537,1.017,0.594,0.659,3.066,0.579,0.149,-0.066,0.081,0.272
1.11,0.329,0.701,0.372,-0.515,-0.021,0.537,1.019,0.599,0.663,3.072,0.583,0.154,-0.064,0.082,0.271
1.111,0.333,0.705,0.372,-0.518,-0.019,0.539,1.018,0.597,0.663,3.075,0.586,0.157,-0.06,0.083,0.272
1.112,0.331,0.706,0.374,-0.518,-0.022,0.54,1.016,0.594,0.664,3.076,0.588,0.159,-0.058,0.085,0.272
1.113,0.333,0.71,0.377,-0.521,-0.022,0.543,1.014,0.59,0.664,3.075,0.586,0.155,-0.059,0.084,0.271
1.114,0.338,0.712,0.374,-0.524,-0.018,0.543,1.011,0.59,0.664,3.071,0.584,0.152,-0.059,0.091,0.269
1.115,0.339,0.713,0.374,-0.525,-0.018,0.544,1.01,0.592,0.666,3.071,0.587,0.155,-0.057,0.1,0.27
1.116,0.332,0.708,0.376,-0.52,-0.022,0.542,1.008,0.589,0.663,3.069,0.585,0.152,-0.059,0.09,0.272
1.117,0.321,0.697,0.376,-0.509,-0.028,0.536,1.006,0.589,0.663,3.067,0.585,0.149,-0.06,0.082,0.27
1.118,0.321,0.696,0.376,-0.508,-0.027,0.536,1.004,0.582,0.663,3.065,0.584,0.147,-0.064,0.092,0.268
1.119,0.34,0.713,0.373,-0.526,-0.017,0.543,1.01,0.586,0.669,3.069,0.589,0.151,-0.061,0.102,0.266
1.12,0.357,0.727,0.37,-0.541,-0.006,0.549,1.005,0.586,0.671,3.07,0.592,0.153,-0.054,0.098,0.27
1.121,0.351,0.719,0.367,-0.535,-0.008,0.543,1.002,0.585,0.67,3.066,0.588,0.15,-0.053,0.095,0.27
1.122,0.352,0.716,0.364,-0.534,-0.006,0.541,1.008,0.59,0.673,3.07,0.591,0.152,-0.054,0.101,0.268
1.123,0.358,0.717,0.359,-0.537,-0.001,0.538,1.002,0.582,0.668,3.071,0.589,0.152,-0.058,0.097,0.272
1.124,0.357,0.719,0.362,-0.537,-0.003,0.541,1.004,0.586,0.672,3.074,0.591,0.153,-0.058,0.097,0.267
1.125,0.357,0.721,0.363,-0.539,-0.003,0.543,1.008,0.587,0.673,3.077,0.596,0.157,-0.055,0.101,0.265
1.126,0.36,0.719,0.359,-0.539,0.001,0.539,1.006,0.582,0.67,3.078,0.595,0.157,-0.055,0.096,0.266
1.127,0.359,0.719,0.359,-0.538,-0.001,0.539,1.003,0.592,0.672,3.077,0.596,0.159,-0.053,0.092,0.265
1.128,0.349,0.718,0.368,-0.533,-0.009,0.543,1.002,0.591,0.673,3.079,0.598,0.161,-0.049,0.095,0.269
1.129,0.345,0.721,0.375,-0.533,-0.015,0.548,1.003,0.584,0.675,3.084,0.6,0.163,-0.044,0.095,0.27
1.13,0.348,0.724,0.375,-0.536,-0.013,0.549,1.008,0.591,0.679,3.088,0.604,0.167,-0.048,0.086,0.269
1.131,0.341,0.722,0.381,-0.531,-0.019,0.551,1.009,0.593,0.683,3.091,0.605,0.17,-0.052,0.089,0.27
1.132,0.343,0.722,0.38,-0.532,-0.018,0.551,1.005,0.6,0.684,3.089,0.604,0.168,-0.048,0.086,0.269
1.133,0.352,0.731,0.379,-0.541,-0.013,0.555,1.003,0.595,0.68,3.086,0.604,0.165,-0.046,0.096,0.269
1.134,0.353,0.737,0.383,-0.545,-0.015,0.56,1.002,0.585,0.677,3.086,0.607,0.166,-0.044,0.11,0.27
1.135,0.351,0.737,0.386,-0.543,-0.018,0.561,0.999,0.587,0.679,3.086,0.608,0.164,-0.043,0.106,0.269
1.136,0.352,0.738,0.386,-0.544,-0.017,0.562,0.999,0.583,0.678,3.083,0.604,0.161,-0.043,0.104,0.269
1.137,0.358,0.739,0.381,-0.548,-0.011,0.56,0.995,0.582,0.674,3.08,0.602,0.161,-0.043,0.104,0.272
1.138,0.353,0.74,0.387,-0.546,-0.017,0.564,0.998,0.583,0.675,3.082,0.601,0.161,-0.044,0.115,0.269
1.139,0.351,0.737,0.385,-0.543,-0.017,0.561,0.996,0.579,0.676,3.083,0.603,0.163,-0.045,0.118,0.266
1.14,0.358,0.739,0.38,-0.548,-0.011,0.559,0.994,0.578,0.676,3.081,0.606,0.164,-0.04,0.114,0.266
1.141,0.364,0.741,0.377,-0.552,-0.006,0.559,0.993,0.581,0.682,3.084,0.61,0.167,-0.036,0.112,0.268
1.142,0.364,0.743,0.378,-0.553,-0.007,0.561,0.989,0.582,0.683,3.087,0.61,0.168,-0.038,0.106,0.268
1.143,0.367,0.749,0.381,-0.558,-0.007,0.565,1.008,0.593,0.688,3.091,0.613,0.17,-0.039,0.105,0.263
1.144,0.371,0.75,0.379,-0.561,-0.004,0.565,1.012,0.596,0.694,3.102,0.621,0.178,-0.038,0.11,0.263
1.145,0.37,0.748,0.377,-0.559,-0.004,0.563,1.008,0.599,0.695,3.104,0.622,0.177,-0.038,0.102,0.262
1.146,0.378,0.747,0.369,-0.562,0.004,0.558,1.008,0.598,0.694,3.103,0.623,0.178,-0.038,0.098,0.261
1.147,0.377,0.751,0.376,-0.564,0.001,0.564,1.008,0.598,0.697,3.107,0.625,0.182,-0.041,0.102,0.262
1.148,0.368,0.75,0.382,-0.559,-0.006,0.567,1.012,0.609,0.703,3.111,0.626,0.183,-0.04,0.099,0.261
1.149,0.364,0.744,0.379,-0.554,-0.007,0.562,1.006,0.592,0.696,3.108,0.624,0.183,-0.04,0.097,0.265
1.15,0.361,0.74,0.378,-0.55,-0.009,0.559,1.012,0.6,0.701,3.114,0.626,0.185,-0.04,0.091,0.263
1.151,0.362,0.737,0.375,-0.549,-0.006,0.556,1.012,0.602,0.704,3.118,0.632,0.192,-0.035,0.091,0.263
1.152,0.364,0.739,0.374,-0.551,-0.005,0.557,1.006,0.601,0.703,3.116,0.63,0.191,-0.035,0.097,0.264
1.153,0.363,0.743,0.38,-0.553,-0.008,0.562,1.006,0.609,0.706,3.114,0.628,0.186,-0.035,0.102,0.266
1.154,0.365,0.747,0.381,-0.555,-0.008,0.565,1.006,0.591,0.699,3.108,0.625,0.185,-0.036,0.1,0.268
1.155,0.373,0.746,0.372,-0.559,0.001,0.56,1.004,0.593,0.701,3.106,0.625,0.185,-0.034,0.097,0.268
1.156,0.381,0.749,0.368,-0.565,0.006,0.559,0.997,0.593,0.7,3.107,0.627,0.186,-0.031,0.105,0.27
1.157,0.379,0.748,0.369,-0.563,0.004,0.559,0.996,0.591,0.7,3.107,0.626,0.185,-0.03,0.111,0.269
1.158,0.377,0.747,0.37,-0.562,0.003,0.559,0.999,0.593,0.7,3.107,0.63,0.186,-0.028,0.107,0.266
1.159,0.38,0.748,0.368,-0.564,0.006,0.558,0.996,0.591,0.701,3.107,0.633,0.187,-0.026,0.112,0.266
1.16,0.378,0.747,0.369,-0.562,0.004,0.558,0.993,0.595,0.704,3.104,0.629,0.184,-0.025,0.12,0.267
1.161,0.369,0.748,0.378,-0.558,-0.004,0.564,0.992,0.587,0.699,3.099,0.625,0.179,-0.029,0.119,0.27
1.162,0.363,0.741,0.378,-0.552,-0.007,0.56,0.996,0.582,0.702,3.102,0.628,0.183,-0.028,0.111,0.27
1.163,0.364,0.743,0.378,-0.553,-0.007,0.56,0.996,0.592,0.709,3.109,0.632,0.188,-0.024,0.11,0.27
1.164,0.367,0.75,0.383,-0.559,-0.007,0.568,0.998,0.592,0.712,3.114,0.637,0.191,-0.025,0.103,0.27
1.165,0.372,0.75,0.379,-0.561,-0.003,0.565,1.002,0.602,0.719,3.115,0.639,0.192,-0.027,0.1,0.266
1.166,0.373,0.75,0.378,-0.561,-0.003,0.565,0.997,0.604,0.72,3.119,0.639,0.192,-0.028,0.109,0.267
1.167,0.377,0.758,0.382,-0.567,-0.003,0.57,0.997,0.59,0.718,3.118,0.644,0.195,-0.026,0.107,0.27
1.168,0.38,0.762,0.383,-0.571,-0.002,0.573,1.002,0.598,0.724,3.123,0.646,0.196,-0.024,0.102,0.269
1.169,0.38,0.764,0.385,-0.572,-0.003,0.575,1.002,0.601,0.731,3.13,0.652,0.202,-0.021,0.106,0.269
1.17,0.381,0.763,0.383,-0.573,-0.001,0.574,1,0.603,0.733,3.133,0.655,0.206,-0.019,0.106,0.268
1.171,0.378,0.766,0.389,-0.572,-0.005,0.578,1.005,0.608,0.731,3.135,0.652,0.207,-0.021,0.108,0.266
1.172,0.374,0.765,0.391,-0.57,-0.009,0.579,1.006,0.606,0.731,3.135,0.654,0.205,-0.021,0.107,0.266
1.173,0.374,0.765,0.391,-0.57,-0.009,0.579,0.999,0.601,0.729,3.129,0.652,0.202,-0.021,0.105,0.268
1.174,0.379,0.767,0.388,-0.573,-0.004,0.579,0.994,0.597,0.727,3.126,0.651,0.202,-0.018,0.108,0.27
1.175,0.377,0.766,0.389,-0.572,-0.005,0.578,0.994,0.598,0.729,3.13,0.654,0.204,-0.016,0.105,0.272
1.176,0.387,0.776,0.389,-0.582,-0.001,0.583,0.999,0.603,0.733,3.133,0.657,0.209,-0.014,0.114,0.269
1.177,0.397,0.779,0.384,-0.588,0.006,0.582,1.001,0.603,0.735,3.136,0.659,0.211,-0.013,0.116,0.268
1.178,0.389,0.777,0.39,-0.583,-0.001,0.584,1,0.601,0.735,3.135,0.658,0.209,-0.015,0.118,0.267
1.179,0.387,0.78,0.393,-0.583,-0.003,0.587,0.999,0.599,0.734,3.136,0.66,0.209,-0.013,0.124,0.266
1.18,0.381,0.778,0.397,-0.58,-0.008,0.588,0.999,0.599,0.736,3.136,0.665,0.212,-0.011,0.122,0.268
1.181,0.382,0.775,0.394,-0.579,-0.006,0.585,1.002,0.6,0.736,3.135,0.664,0.213,-0.01,0.119,0.267
1.182,0.39,0.772,0.382,-0.581,0.004,0.578,1.003,0.601,0.739,3.14,0.666,0.216,-0.007,0.113,0.268
1.183,0.394,0.771,0.378,-0.582,0.008,0.575,1.004,0.609,0.744,3.147,0.671,0.223,-0.004,0.108,0.27
1.184,0.396,0.769,0.373,-0.583,0.011,0.572,1.004,0.607,0.744,3.15,0.673,0.224,-0.004,0.104,0.269
1.185,0.399,0.768,0.369,-0.583,0.014,0.57,1.004,0.603,0.742,3.147,0.67,0.224,-0.004,0.103,0.269
1.186,0.399,0.769,0.37,-0.584,0.015,0.57,1,0.6,0.743,3.15,0.67,0.225,-0.005,0.103,0.269
1.187,0.4,0.77,0.37,-0.585,0.015,0.571,1.001,0.603,0.745,3.151,0.671,0.226,-0.004,0.106,0.268
1.188,0.402,0.775,0.372,-0.589,0.015,0.575,1.003,0.608,0.743,3.149,0.669,0.225,-0.004,0.11,0.27
1.189,0.398,0.775,0.378,-0.587,0.01,0.577,1,0.605,0.744,3.154,0.673,0.227,-0.004,0.108,0.269
1.19,0.397,0.77,0.374,-0.584,0.011,0.573,1,0.61,0.748,3.16,0.677,0.233,-0.001,0.103,0.269
1.191,0.399,0.772,0.373,-0.585,0.013,0.573,1,0.61,0.747,3.16,0.677,0.234,0.001,0.101,0.269
1.192,0.397,0.777,0.381,-0.587,0.008,0.579,0.995,0.607,0.745,3.16,0.677,0.232,0.002,0.103,0.271
1.193,0.396,0.781,0.386,-0.589,0.005,0.584,0.99,0.605,0.746,3.159,0.681,0.233,0.003,0.11,0.272
1.194,0.396,0.78,0.385,-0.588,0.005,0.584,0.994,0.603,0.746,3.158,0.683,0.233,0.005,0.117,0.27
1.195,0.402,0.782,0.381,-0.593,0.011,0.582,0.99,0.602,0.746,3.157,0.683,0.232,0.007,0.118,0.273
1.196,0.404,0.789,0.386,-0.597,0.009,0.588,0.989,0.598,0.745,3.155,0.683,0.231,0.008,0.122,0.273
1.197,0.401,0.786,0.386,-0.594,0.007,0.587,0.989,0.605,0.744,3.152,0.678,0.23,0.009,0.117,0.274
1.198,0.399,0.784,0.386,-0.592,0.006,0.586,0.988,0.605,0.748,3.156,0.681,0.232,0.009,0.12,0.273
1.199,0.399,0.792,0.394,-0.596,0.003,0.593,0.988,0.6,0.749,3.159,0.686,0.232,0.011,0.131,0.27
1.2,0.401,0.794,0.394,-0.598,0.004,0.595,0.983,0.599,0.747,3.154,0.683,0.228,0.011,0.131,0.271
1.201,0.407,0.794,0.388,-0.601,0.009,0.592,0.979,0.597,0.746,3.154,0.684,0.23,0.015,0.13,0.271
1.202,0.412,0.794,0.383,-0.603,0.015,0.589,0.978,0.599,0.747,3.156,0.687,0.232,0.017,0.126,0.272
1.203,0.411,0.791,0.38,-0.602,0.015,0.587,0.98,0.602,0.749,3.162,0.691,0.234,0.016,0.124,0.272
1.204,0.416,0.792,0.376,-0.604,0.021,0.584,0.979,0.601,0.75,3.165,0.693,0.237,0.018,0.122,0.272
1.205,0.418,0.791,0.373,-0.604,0.022,0.583,0.979,0.6,0.751,3.167,0.693,0.238,0.018,0.123,0.271
1.206,0.418,0.792,0.374,-0.605,0.022,0.584,0.979,0.602,0.755,3.171,0.698,0.242,0.021,0.126,0.27
1.207,0.415,0.795,0.38,-0.605,0.018,0.588,0.979,0.604,0.758,3.177,0.701,0.245,0.024,0.127,0.27
1.208,0.407,0.799,0.392,-0.603,0.007,0.596,0.981,0.604,0.76,3.182,0.705,0.249,0.024,0.127,0.272
1.209,0.406,0.798,0.393,-0.602,0.006,0.596,0.981,0.606,0.763,3.183,0.708,0.251,0.023,0.117,0.273
1.21,0.409,0.793,0.384,-0.601,0.013,0.589,0.979,0.604,0.764,3.188,0.71,0.254,0.023,0.111,0.271
1.211,0.406,0.79,0.385,-0.598,0.011,0.588,0.977,0.601,0.764,3.189,0.711,0.256,0.025,0.114,0.272
1.212,0.405,0.793,0.389,-0.599,0.008,0.592,0.975,0.597,0.762,3.187,0.71,0.253,0.026,0.122,0.271
1.213,0.414,0.805,0.391,-0.609,0.012,0.598,0.975,0.599,0.765,3.191,0.713,0.255,0.03,0.127,0.269
1.214,0.42,0.811,0.391,-0.616,0.015,0.602,0.974,0.602,0.769,3.193,0.718,0.257,0.034,0.13,0.269
1.215,0.417,0.811,0.394,-0.614,0.012,0.603,0.971,0.601,0.768,3.192,0.718,0.257,0.035,0.135,0.27
1.216,0.414,0.806,0.392,-0.61,0.011,0.6,0.97,0.608,0.772,3.196,0.72,0.257,0.037,0.133,0.27
1.217,0.417,0.806,0.389,-0.612,0.014,0.598,0.966,0.6,0.771,3.197,0.722,0.258,0.04,0.132,0.271
1.218,0.417,0.808,0.391,-0.612,0.013,0.6,0.966,0.593,0.77,3.197,0.722,0.261,0.043,0.135,0.273
1.219,0.422,0.809,0.387,-0.616,0.018,0.599,0.965,0.597,0.772,3.196,0.723,0.261,0.044,0.134,0.273
1.22,0.426,0.817,0.391,-0.621,0.018,0.604,0.964,0.591,0.77,3.193,0.724,0.259,0.046,0.141,0.271
1.221,0.426,0.818,0.393,-0.622,0.017,0.606,0.961,0.594,0.772,3.192,0.725,0.259,0.048,0.143,0.272
1.222,0.431,0.821,0.389,-0.625,0.021,0.606,0.955,0.602,0.775,3.196,0.727,0.262,0.049,0.142,0.273
1.223,0.432,0.821,0.389,-0.626,0.021,0.606,0.957,0.587,0.775,3.203,0.733,0.268,0.052,0.147,0.273
1.224,0.435,0.819,0.384,-0.626,0.025,0.602,0.957,0.589,0.779,3.208,0.737,0.273,0.056,0.144,0.273
1.225,0.433,0.82,0.387,-0.626,0.023,0.604,0.958,0.599,0.784,3.213,0.74,0.274,0.057,0.147,0.27
1.226,0.43,0.816,0.386,-0.623,0.021,0.602,0.959,0.596,0.785,3.217,0.745,0.278,0.057,0.149,0.271
1.227,0.433,0.819,0.386,-0.625,0.024,0.603,0.959,0.605,0.79,3.22,0.749,0.281,0.059,0.141,0.272
1.228,0.433,0.822,0.388,-0.627,0.022,0.606,0.955,0.604,0.793,3.222,0.751,0.281,0.061,0.144,0.273
1.229,0.435,0.822,0.387,-0.628,0.025,0.605,0.954,0.595,0.791,3.227,0.754,0.286,0.064,0.144,0.274
1.23,0.437,0.821,0.384,-0.628,0.026,0.603,0.959,0.599,0.795,3.233,0.758,0.291,0.065,0.135,0.271
1.231,0.44,0.822,0.383,-0.63,0.029,0.603,0.958,0.6,0.797,3.236,0.76,0.294,0.069,0.139,0.271
1.232,0.44,0.826,0.387,-0.632,0.026,0.607,0.956,0.597,0.797,3.239,0.763,0.296,0.071,0.142,0.27
1.233,0.442,0.826,0.384,-0.633,0.029,0.606,0.95,0.599,0.799,3.237,0.764,0.295,0.072,0.147,0.269
1.234,0.451,0.838,0.387,-0.644,0.033,0.613,0.949,0.598,0.801,3.238,0.767,0.297,0.076,0.155,0.27
1.235,0.451,0.841,0.391,-0.645,0.03,0.616,0.948,0.594,0.802,3.243,0.772,0.3,0.077,0.158,0.272
1.236,0.453,0.844,0.391,-0.648,0.031,0.618,0.946,0.594,0.804,3.247,0.776,0.303,0.081,0.154,0.271
1.237,0.458,0.851,0.393,-0.653,0.032,0.622,0.945,0.594,0.806,3.249,0.779,0.305,0.084,0.155,0.272
1.238,0.453,0.846,0.393,-0.649,0.03,0.62,0.941,0.593,0.806,3.251,0.782,0.307,0.087,0.165,0.271
