'Elapsed time','i','ii','iii','avr','avl','avf','v1','v2','v3','v4','v5','v6','vx','vy','vz'
'hh:mm:ss.mmm','mV','mV','mV','mV','mV','mV','mV','mV','mV','mV','mV','mV','mV','mV','mV'
0,-2.649,-2.619,0.031,2.634,-1.34,-1.294,2.437,1.571,1.156,0.503,0.146,0.433,-1.268,-4.746,0.781
0.001,-2.635,-2.611,0.025,2.623,-1.33,-1.292,2.434,1.577,1.164,0.515,0.16,0.452,-1.254,-4.744,0.779
0.002,-2.632,-2.608,0.025,2.62,-1.329,-1.291,2.429,1.575,1.169,0.521,0.169,0.469,-1.238,-4.739,0.781
0.003,-2.626,-2.608,0.018,2.617,-1.321,-1.295,2.418,1.567,1.165,0.524,0.178,0.483,-1.224,-4.737,0.783
0.004,-2.617,-2.602,0.015,2.61,-1.316,-1.293,2.411,1.563,1.171,0.535,0.192,0.499,-1.211,-4.732,0.78
0.005,-2.613,-2.594,0.02,2.603,-1.316,-1.286,2.41,1.569,1.18,0.546,0.204,0.509,-1.204,-4.725,0.777
0.006,-2.603,-2.587,0.017,2.595,-1.31,-1.285,2.408,1.571,1.189,0.555,0.217,0.524,-1.19,-4.726,0.777
0.007,-2.607,-2.584,0.024,2.596,-1.315,-1.28,2.405,1.577,1.2,0.57,0.234,0.539,-1.178,-4.724,0.776
0.008,-2.603,-2.583,0.021,2.592,-1.311,-1.281,2.397,1.573,1.203,0.578,0.248,0.546,-1.169,-4.721,0.773
0.009,-2.591,-2.579,0.012,2.585,-1.301,-1.284,2.391,1.567,1.206,0.586,0.263,0.555,-1.157,-4.718,0.772
0.01,-2.584,-2.57,0.015,2.577,-1.3,-1.277,2.389,1.574,1.217,0.602,0.284,0.568,-1.145,-4.708,0.77
0.011,-2.582,-2.562,0.021,2.572,-1.301,-1.27,2.385,1.571,1.224,0.612,0.301,0.579,-1.137,-4.701,0.768
0.012,-2.586,-2.56,0.026,2.572,-1.306,-1.267,2.384,1.58,1.231,0.623,0.313,0.592,-1.127,-4.697,0.765
0.013,-2.581,-2.557,0.025,2.569,-1.302,-1.266,2.378,1.579,1.238,0.631,0.321,0.605,-1.115,-4.691,0.766
0.014,-2.567,-2.551,0.016,2.558,-1.291,-1.268,2.371,1.575,1.236,0.635,0.33,0.619,-1.103,-4.692,0.768
0.015,-2.553,-2.541,0.013,2.546,-1.282,-1.264,2.369,1.582,1.248,0.646,0.343,0.638,-1.086,-4.691,0.768
0.016,-2.549,-2.534,0.015,2.542,-1.282,-1.26,2.365,1.581,1.25,0.655,0.352,0.652,-1.075,-4.684,0.766
0.017,-2.539,-2.531,0.009,2.535,-1.274,-1.26,2.355,1.577,1.247,0.656,0.359,0.661,-1.068,-4.686,0.767
0.018,-2.533,-2.527,0.005,2.53,-1.269,-1.26,2.348,1.567,1.246,0.658,0.365,0.668,-1.058,-4.685,0.77
0.019,-2.529,-2.53,-0.002,2.53,-1.264,-1.266,2.342,1.562,1.24,0.657,0.371,0.678,-1.05,-4.689,0.774
0.02,-2.529,-2.527,0.003,2.528,-1.266,-1.262,2.34,1.567,1.256,0.668,0.388,0.697,-1.038,-4.689,0.771
0.021,-2.531,-2.52,0.012,2.526,-1.272,-1.254,2.341,1.573,1.268,0.684,0.409,0.714,-1.026,-4.683,0.767
0.022,-2.528,-2.514,0.014,2.521,-1.27,-1.25,2.338,1.571,1.262,0.685,0.421,0.724,-1.017,-4.678,0.77
0.023,-2.527,-2.51,0.018,2.518,-1.272,-1.245,2.334,1.571,1.264,0.692,0.436,0.736,-1.006,-4.669,0.768
0.024,-2.528,-2.505,0.024,2.517,-1.276,-1.24,2.33,1.577,1.274,0.703,0.453,0.748,-0.996,-4.665,0.766
0.025,-2.523,-2.494,0.03,2.509,-1.276,-1.232,2.328,1.577,1.284,0.718,0.465,0.761,-0.988,-4.663,0.767
0.026,-2.515,-2.486,0.029,2.501,-1.272,-1.228,2.326,1.573,1.279,0.72,0.471,0.769,-0.978,-4.662,0.767
0.027,-2.509,-2.486,0.024,2.497,-1.266,-1.23,2.32,1.569,1.275,0.715,0.475,0.775,-0.971,-4.657,0.768
0.028,-2.513,-2.483,0.029,2.498,-1.271,-1.226,2.316,1.573,1.286,0.727,0.49,0.786,-0.962,-4.654,0.766
0.029,-2.513,-2.474,0.038,2.493,-1.275,-1.218,2.314,1.573,1.288,0.734,0.5,0.795,-0.955,-4.649,0.765
0.03,-2.501,-2.465,0.037,2.483,-1.268,-1.214,2.311,1.569,1.287,0.735,0.508,0.803,-0.949,-4.641,0.764
0.031,-2.498,-2.463,0.036,2.481,-1.267,-1.214,2.308,1.568,1.291,0.741,0.519,0.813,-0.939,-4.638,0.763
0.032,-2.492,-2.462,0.031,2.477,-1.261,-1.215,2.298,1.562,1.288,0.744,0.527,0.819,-0.929,-4.636,0.763
0.033,-2.49,-2.462,0.028,2.476,-1.258,-1.217,2.291,1.556,1.284,0.744,0.534,0.823,-0.926,-4.636,0.766
0.034,-2.494,-2.459,0.036,2.477,-1.265,-1.211,2.295,1.56,1.292,0.752,0.547,0.835,-0.918,-4.634,0.764
0.035,-2.493,-2.454,0.04,2.474,-1.266,-1.206,2.293,1.567,1.296,0.759,0.559,0.846,-0.909,-4.63,0.761
0.036,-2.493,-2.455,0.037,2.474,-1.265,-1.208,2.285,1.554,1.284,0.755,0.562,0.852,-0.902,-4.625,0.762
0.037,-2.492,-2.455,0.037,2.474,-1.264,-1.208,2.281,1.552,1.287,0.757,0.57,0.861,-0.894,-4.619,0.761
0.038,-2.492,-2.457,0.036,2.474,-1.264,-1.21,2.277,1.553,1.29,0.761,0.576,0.866,-0.887,-4.618,0.762
0.039,-2.489,-2.462,0.028,2.475,-1.258,-1.216,2.269,1.537,1.282,0.754,0.575,0.868,-0.883,-4.622,0.765
0.04,-2.478,-2.461,0.018,2.47,-1.248,-1.222,2.267,1.534,1.274,0.746,0.576,0.872,-0.882,-4.626,0.77
0.041,-2.476,-2.453,0.024,2.464,-1.25,-1.214,2.27,1.544,1.276,0.753,0.585,0.881,-0.878,-4.625,0.768
0.042,-2.48,-2.447,0.033,2.464,-1.256,-1.207,2.269,1.54,1.279,0.759,0.593,0.888,-0.875,-4.619,0.766
0.043,-2.474,-2.437,0.038,2.456,-1.256,-1.199,2.264,1.529,1.272,0.754,0.598,0.894,-0.869,-4.609,0.766
0.044,-2.471,-2.429,0.043,2.45,-1.256,-1.193,2.262,1.536,1.277,0.758,0.604,0.902,-0.864,-4.604,0.763
0.045,-2.477,-2.433,0.045,2.454,-1.26,-1.194,2.263,1.536,1.27,0.753,0.605,0.905,-0.866,-4.603,0.764
0.046,-2.473,-2.433,0.041,2.454,-1.256,-1.196,2.26,1.528,1.263,0.748,0.605,0.905,-0.866,-4.606,0.765
0.047,-2.461,-2.426,0.036,2.443,-1.248,-1.194,2.259,1.532,1.266,0.749,0.61,0.907,-0.862,-4.608,0.767
0.048,-2.457,-2.417,0.04,2.437,-1.248,-1.188,2.259,1.528,1.26,0.742,0.609,0.912,-0.86,-4.601,0.766
0.049,-2.46,-2.416,0.044,2.438,-1.252,-1.185,2.255,1.52,1.254,0.742,0.612,0.916,-0.859,-4.595,0.765
0.05,-2.464,-2.409,0.055,2.437,-1.26,-1.177,2.258,1.519,1.246,0.738,0.612,0.917,-0.858,-4.591,0.765
0.051,-2.457,-2.401,0.056,2.429,-1.256,-1.173,2.26,1.52,1.242,0.73,0.608,0.917,-0.861,-4.59,0.765
0.052,-2.459,-2.405,0.054,2.433,-1.256,-1.176,2.253,1.514,1.24,0.726,0.605,0.916,-0.861,-4.589,0.767
0.053,-2.475,-2.414,0.061,2.445,-1.268,-1.177,2.252,1.51,1.234,0.717,0.601,0.913,-0.864,-4.592,0.769
0.054,-2.467,-2.41,0.057,2.438,-1.262,-1.176,2.252,1.509,1.228,0.711,0.598,0.912,-0.866,-4.588,0.771
0.055,-2.467,-2.409,0.059,2.438,-1.262,-1.175,2.257,1.51,1.222,0.704,0.594,0.91,-0.87,-4.586,0.77
0.056,-2.482,-2.413,0.07,2.447,-1.275,-1.171,2.261,1.506,1.214,0.696,0.589,0.907,-0.875,-4.585,0.771
0.057,-2.49,-2.415,0.075,2.452,-1.282,-1.17,2.261,1.502,1.212,0.69,0.583,0.902,-0.878,-4.59,0.775
0.058,-2.496,-2.418,0.079,2.457,-1.287,-1.169,2.268,1.51,1.212,0.686,0.581,0.898,-0.886,-4.596,0.776
0.059,-2.498,-2.428,0.07,2.463,-1.284,-1.179,2.268,1.502,1.194,0.669,0.565,0.883,-0.898,-4.604,0.78
0.06,-2.495,-2.438,0.058,2.466,-1.276,-1.19,2.269,1.496,1.183,0.653,0.548,0.865,-0.912,-4.61,0.78
0.061,-2.489,-2.439,0.05,2.465,-1.269,-1.195,2.271,1.494,1.177,0.643,0.537,0.851,-0.923,-4.611,0.778
0.062,-2.495,-2.443,0.052,2.469,-1.274,-1.195,2.273,1.486,1.163,0.623,0.519,0.833,-0.939,-4.617,0.779
0.063,-2.522,-2.441,0.081,2.482,-1.301,-1.18,2.288,1.498,1.169,0.627,0.519,0.827,-0.952,-4.612,0.774
0.064,-2.542,-2.45,0.092,2.497,-1.317,-1.179,2.297,1.502,1.162,0.615,0.5,0.81,-0.97,-4.614,0.773
0.065,-2.537,-2.457,0.081,2.497,-1.308,-1.188,2.296,1.495,1.149,0.59,0.475,0.786,-0.989,-4.617,0.773
0.066,-2.527,-2.451,0.077,2.489,-1.302,-1.187,2.304,1.494,1.141,0.581,0.463,0.769,-1.004,-4.615,0.772
0.067,-2.53,-2.452,0.079,2.491,-1.304,-1.186,2.308,1.49,1.131,0.563,0.443,0.751,-1.02,-4.619,0.772
0.068,-2.546,-2.466,0.08,2.506,-1.312,-1.193,2.31,1.484,1.115,0.547,0.42,0.733,-1.034,-4.621,0.771
0.069,-2.552,-2.475,0.077,2.514,-1.315,-1.198,2.321,1.484,1.099,0.527,0.396,0.712,-1.052,-4.623,0.771
0.07,-2.555,-2.471,0.084,2.514,-1.319,-1.194,2.328,1.492,1.099,0.514,0.379,0.698,-1.069,-4.621,0.768
0.071,-2.575,-2.482,0.092,2.529,-1.333,-1.195,2.33,1.488,1.095,0.501,0.36,0.681,-1.085,-4.627,0.768
0.072,-2.586,-2.494,0.092,2.539,-1.339,-1.2,2.338,1.488,1.084,0.484,0.338,0.66,-1.103,-4.633,0.768
0.073,-2.594,-2.508,0.086,2.551,-1.339,-1.211,2.345,1.48,1.067,0.461,0.31,0.636,-1.125,-4.641,0.771
0.074,-2.599,-2.518,0.081,2.558,-1.339,-1.218,2.353,1.482,1.056,0.441,0.283,0.617,-1.142,-4.647,0.773
0.075,-2.619,-2.525,0.095,2.572,-1.357,-1.214,2.362,1.492,1.054,0.431,0.267,0.603,-1.157,-4.652,0.771
0.076,-2.63,-2.533,0.098,2.582,-1.363,-1.218,2.372,1.488,1.039,0.415,0.249,0.586,-1.173,-4.655,0.771
0.077,-2.626,-2.535,0.091,2.58,-1.359,-1.222,2.381,1.49,1.032,0.4,0.228,0.566,-1.192,-4.66,0.771
0.078,-2.654,-2.555,0.099,2.604,-1.375,-1.228,2.386,1.488,1.025,0.38,0.203,0.538,-1.215,-4.674,0.774
0.079,-2.663,-2.567,0.098,2.615,-1.38,-1.234,2.397,1.48,1.004,0.356,0.178,0.517,-1.237,-4.68,0.777
0.08,-2.658,-2.571,0.088,2.614,-1.373,-1.241,2.405,1.483,0.998,0.341,0.153,0.494,-1.258,-4.686,0.777
0.081,-2.672,-2.587,0.085,2.63,-1.379,-1.25,2.413,1.486,0.991,0.322,0.126,0.47,-1.278,-4.694,0.778
0.082,-2.675,-2.591,0.086,2.633,-1.38,-1.252,2.419,1.478,0.975,0.302,0.102,0.449,-1.298,-4.694,0.779
0.083,-2.679,-2.591,0.087,2.635,-1.383,-1.252,2.427,1.48,0.965,0.284,0.082,0.425,-1.319,-4.697,0.778
0.084,-2.695,-2.603,0.091,2.649,-1.393,-1.256,2.438,1.478,0.949,0.267,0.059,0.402,-1.341,-4.707,0.781
0.085,-2.707,-2.613,0.094,2.66,-1.401,-1.26,2.447,1.478,0.937,0.248,0.036,0.377,-1.363,-4.718,0.784
0.086,-2.719,-2.621,0.099,2.67,-1.409,-1.261,2.458,1.482,0.931,0.233,0.014,0.35,-1.387,-4.723,0.782
0.087,-2.736,-2.635,0.102,2.685,-1.419,-1.266,2.465,1.478,0.917,0.212,-0.011,0.323,-1.411,-4.726,0.781
0.088,-2.747,-2.645,0.102,2.696,-1.424,-1.272,2.471,1.474,0.901,0.192,-0.035,0.3,-1.429,-4.733,0.783
0.089,-2.741,-2.644,0.097,2.693,-1.419,-1.274,2.479,1.468,0.892,0.177,-0.057,0.283,-1.446,-4.736,0.781
0.09,-2.741,-2.647,0.095,2.695,-1.417,-1.276,2.483,1.464,0.877,0.157,-0.081,0.263,-1.464,-4.736,0.782
0.091,-2.753,-2.655,0.1,2.704,-1.427,-1.277,2.491,1.464,0.869,0.143,-0.103,0.245,-1.482,-4.737,0.783
0.092,-2.767,-2.666,0.102,2.716,-1.433,-1.282,2.501,1.463,0.86,0.128,-0.124,0.229,-1.499,-4.74,0.781
0.093,-2.769,-2.679,0.09,2.724,-1.429,-1.294,2.503,1.46,0.841,0.105,-0.151,0.211,-1.514,-4.753,0.789
0.094,-2.766,-2.687,0.08,2.727,-1.423,-1.304,2.508,1.458,0.831,0.088,-0.172,0.2,-1.523,-4.763,0.793
0.095,-2.784,-2.698,0.086,2.741,-1.435,-1.306,2.519,1.454,0.819,0.071,-0.193,0.185,-1.54,-4.767,0.793
0.096,-2.799,-2.709,0.09,2.755,-1.444,-1.31,2.523,1.452,0.809,0.058,-0.212,0.17,-1.556,-4.772,0.795
0.097,-2.804,-2.72,0.085,2.763,-1.444,-1.317,2.533,1.454,0.799,0.044,-0.229,0.155,-1.571,-4.779,0.798
0.098,-2.813,-2.73,0.084,2.772,-1.448,-1.323,2.547,1.453,0.789,0.029,-0.246,0.142,-1.587,-4.787,0.802
0.099,-2.817,-2.737,0.081,2.777,-1.449,-1.328,2.55,1.452,0.781,0.018,-0.259,0.127,-1.6,-4.79,0.803
0.1,-2.809,-2.747,0.063,2.778,-1.436,-1.341,2.553,1.445,0.764,-0.003,-0.28,0.104,-1.618,-4.802,0.806
0.101,-2.801,-2.758,0.043,2.78,-1.422,-1.357,2.553,1.437,0.749,-0.025,-0.304,0.083,-1.633,-4.813,0.809
0.102,-2.815,-2.768,0.047,2.792,-1.431,-1.361,2.559,1.437,0.739,-0.038,-0.321,0.065,-1.65,-4.812,0.809
0.103,-2.84,-2.776,0.064,2.808,-1.452,-1.356,2.571,1.438,0.73,-0.05,-0.338,0.045,-1.669,-4.814,0.812
0.104,-2.858,-2.781,0.076,2.82,-1.467,-1.353,2.578,1.436,0.724,-0.06,-0.352,0.03,-1.685,-4.822,0.812
0.105,-2.869,-2.791,0.079,2.83,-1.474,-1.356,2.585,1.432,0.714,-0.071,-0.367,0.011,-1.7,-4.832,0.813
0.106,-2.874,-2.8,0.074,2.837,-1.474,-1.363,2.589,1.428,0.7,-0.091,-0.39,-0.011,-1.718,-4.838,0.817
0.107,-2.872,-2.805,0.067,2.839,-1.469,-1.369,2.591,1.423,0.686,-0.106,-0.406,-0.028,-1.73,-4.843,0.819
0.108,-2.88,-2.812,0.068,2.846,-1.473,-1.373,2.595,1.419,0.678,-0.118,-0.42,-0.043,-1.743,-4.847,0.822
0.109,-2.889,-2.821,0.068,2.855,-1.478,-1.377,2.599,1.417,0.67,-0.128,-0.432,-0.048,-1.751,-4.851,0.824
0.11,-2.889,-2.825,0.065,2.857,-1.476,-1.38,2.606,1.413,0.656,-0.141,-0.442,-0.051,-1.757,-4.857,0.828
0.111,-2.891,-2.826,0.065,2.859,-1.477,-1.381,2.612,1.413,0.648,-0.158,-0.461,-0.06,-1.768,-4.861,0.832
0.112,-2.894,-2.828,0.066,2.861,-1.48,-1.381,2.619,1.417,0.648,-0.159,-0.469,-0.06,-1.772,-4.859,0.832
0.113,-2.903,-2.836,0.068,2.869,-1.485,-1.384,2.624,1.417,0.634,-0.173,-0.482,-0.065,-1.778,-4.864,0.837
0.114,-2.905,-2.844,0.061,2.875,-1.484,-1.391,2.623,1.411,0.626,-0.186,-0.499,-0.074,-1.786,-4.869,0.84
0.115,-2.905,-2.851,0.053,2.878,-1.478,-1.399,2.626,1.401,0.619,-0.196,-0.51,-0.085,-1.794,-4.872,0.841
0.116,-2.909,-2.855,0.054,2.882,-1.482,-1.401,2.631,1.399,0.609,-0.204,-0.519,-0.092,-1.801,-4.87,0.842
0.117,-2.917,-2.861,0.056,2.889,-1.486,-1.403,2.634,1.403,0.606,-0.21,-0.526,-0.099,-1.807,-4.877,0.843
0.118,-2.922,-2.873,0.05,2.898,-1.486,-1.411,2.635,1.397,0.595,-0.225,-0.538,-0.11,-1.817,-4.886,0.846
0.119,-2.929,-2.881,0.048,2.905,-1.488,-1.417,2.642,1.399,0.588,-0.233,-0.547,-0.117,-1.827,-4.887,0.847
0.12,-2.936,-2.89,0.045,2.913,-1.49,-1.423,2.646,1.394,0.582,-0.241,-0.558,-0.13,-1.839,-4.897,0.849
0.121,-2.938,-2.897,0.041,2.917,-1.488,-1.429,2.648,1.389,0.573,-0.252,-0.569,-0.142,-1.849,-4.902,0.851
0.122,-2.934,-2.896,0.04,2.915,-1.487,-1.428,2.65,1.389,0.57,-0.26,-0.576,-0.149,-1.858,-4.901,0.852
0.123,-2.925,-2.888,0.037,2.907,-1.482,-1.425,2.651,1.386,0.564,-0.265,-0.582,-0.155,-1.863,-4.9,0.851
0.124,-2.93,-2.897,0.034,2.913,-1.482,-1.431,2.651,1.385,0.556,-0.27,-0.59,-0.162,-1.867,-4.907,0.854
0.125,-2.942,-2.905,0.036,2.924,-1.489,-1.435,2.654,1.381,0.546,-0.279,-0.599,-0.169,-1.877,-4.91,0.856
0.126,-2.945,-2.904,0.041,2.925,-1.492,-1.431,2.663,1.383,0.544,-0.283,-0.604,-0.174,-1.885,-4.91,0.856
0.127,-2.941,-2.902,0.038,2.921,-1.489,-1.431,2.665,1.383,0.546,-0.283,-0.606,-0.177,-1.889,-4.913,0.86
0.128,-2.947,-2.91,0.037,2.929,-1.492,-1.437,2.661,1.378,0.533,-0.294,-0.615,-0.186,-1.893,-4.912,0.862
0.129,-2.958,-2.918,0.04,2.938,-1.498,-1.44,2.662,1.375,0.526,-0.302,-0.624,-0.194,-1.898,-4.915,0.861
0.13,-2.957,-2.913,0.043,2.935,-1.5,-1.435,2.664,1.368,0.52,-0.307,-0.63,-0.199,-1.902,-4.916,0.862
0.131,-2.953,-2.909,0.043,2.931,-1.498,-1.433,2.666,1.367,0.514,-0.312,-0.635,-0.202,-1.907,-4.913,0.863
0.132,-2.945,-2.907,0.038,2.926,-1.491,-1.435,2.666,1.377,0.514,-0.314,-0.637,-0.203,-1.905,-4.912,0.864
0.133,-2.947,-2.91,0.037,2.929,-1.492,-1.437,2.667,1.371,0.507,-0.321,-0.644,-0.209,-1.911,-4.912,0.867
0.134,-2.941,-2.914,0.026,2.928,-1.484,-1.444,2.668,1.363,0.504,-0.325,-0.651,-0.216,-1.917,-4.914,0.866
0.135,-2.938,-2.916,0.022,2.927,-1.48,-1.446,2.67,1.363,0.5,-0.329,-0.653,-0.216,-1.917,-4.915,0.868
0.136,-2.953,-2.922,0.029,2.938,-1.49,-1.446,2.667,1.361,0.497,-0.332,-0.657,-0.213,-1.915,-4.917,0.87
0.137,-2.957,-2.933,0.024,2.946,-1.49,-1.454,2.668,1.359,0.491,-0.337,-0.661,-0.217,-1.919,-4.923,0.875
0.138,-2.954,-2.933,0.021,2.945,-1.488,-1.456,2.675,1.359,0.484,-0.341,-0.663,-0.216,-1.921,-4.928,0.876
0.139,-2.969,-2.943,0.025,2.956,-1.497,-1.459,2.675,1.359,0.49,-0.341,-0.665,-0.216,-1.922,-4.927,0.876
0.14,-2.982,-2.958,0.024,2.97,-1.502,-1.467,2.679,1.363,0.488,-0.345,-0.671,-0.226,-1.927,-4.94,0.879
0.141,-2.982,-2.965,0.017,2.974,-1.499,-1.474,2.682,1.363,0.481,-0.351,-0.675,-0.228,-1.931,-4.949,0.88
0.142,-2.985,-2.967,0.018,2.976,-1.501,-1.475,2.683,1.362,0.476,-0.358,-0.679,-0.23,-1.934,-4.947,0.882
0.143,-2.978,-2.965,0.014,2.971,-1.496,-1.475,2.683,1.356,0.472,-0.358,-0.682,-0.232,-1.934,-4.947,0.881
0.144,-2.982,-2.964,0.018,2.973,-1.499,-1.474,2.687,1.354,0.475,-0.352,-0.681,-0.233,-1.937,-4.942,0.878
0.145,-2.983,-2.962,0.022,2.973,-1.502,-1.47,2.688,1.358,0.478,-0.353,-0.681,-0.236,-1.941,-4.942,0.878
0.146,-2.979,-2.963,0.016,2.971,-1.498,-1.474,2.686,1.353,0.475,-0.357,-0.686,-0.24,-1.942,-4.95,0.88
0.147,-2.985,-2.964,0.021,2.975,-1.504,-1.471,2.685,1.349,0.472,-0.36,-0.69,-0.244,-1.946,-4.944,0.88
0.148,-2.98,-2.961,0.02,2.97,-1.5,-1.47,2.685,1.351,0.471,-0.358,-0.686,-0.242,-1.944,-4.943,0.88
0.149,-2.975,-2.955,0.019,2.966,-1.496,-1.468,2.691,1.357,0.471,-0.358,-0.686,-0.24,-1.944,-4.945,0.881
0.15,-2.971,-2.95,0.021,2.961,-1.496,-1.464,2.69,1.359,0.476,-0.356,-0.687,-0.241,-1.944,-4.939,0.881
0.151,-2.975,-2.951,0.024,2.963,-1.5,-1.464,2.691,1.356,0.474,-0.354,-0.684,-0.238,-1.943,-4.941,0.883
0.152,-2.979,-2.949,0.03,2.964,-1.504,-1.46,2.689,1.353,0.474,-0.355,-0.684,-0.236,-1.944,-4.943,0.886
0.153,-2.978,-2.947,0.03,2.962,-1.504,-1.458,2.69,1.359,0.481,-0.351,-0.683,-0.234,-1.941,-4.939,0.886
0.154,-2.982,-2.949,0.033,2.966,-1.507,-1.458,2.695,1.359,0.474,-0.357,-0.687,-0.237,-1.943,-4.94,0.887
0.155,-2.982,-2.948,0.035,2.966,-1.508,-1.457,2.693,1.355,0.469,-0.361,-0.692,-0.239,-1.946,-4.939,0.887
0.156,-2.987,-2.95,0.037,2.969,-1.512,-1.456,2.692,1.35,0.469,-0.361,-0.692,-0.237,-1.945,-4.938,0.886
0.157,-2.989,-2.955,0.034,2.972,-1.51,-1.461,2.691,1.343,0.466,-0.366,-0.695,-0.237,-1.946,-4.944,0.887
0.158,-2.986,-2.959,0.026,2.973,-1.506,-1.466,2.696,1.355,0.466,-0.364,-0.691,-0.231,-1.942,-4.942,0.889
0.159,-2.987,-2.966,0.022,2.977,-1.504,-1.472,2.696,1.353,0.469,-0.362,-0.69,-0.227,-1.941,-4.946,0.888
0.16,-2.99,-2.971,0.018,2.981,-1.504,-1.476,2.692,1.347,0.465,-0.366,-0.696,-0.234,-1.947,-4.949,0.887
0.161,-2.989,-2.977,0.011,2.983,-1.5,-1.483,2.692,1.345,0.458,-0.371,-0.701,-0.242,-1.948,-4.954,0.89
0.162,-2.981,-2.971,0.009,2.977,-1.494,-1.481,2.696,1.348,0.461,-0.372,-0.702,-0.246,-1.952,-4.956,0.889
0.163,-2.981,-2.967,0.013,2.974,-1.497,-1.476,2.699,1.351,0.463,-0.368,-0.698,-0.248,-1.954,-4.949,0.886
0.164,-2.983,-2.972,0.011,2.978,-1.497,-1.48,2.693,1.349,0.462,-0.368,-0.699,-0.253,-1.955,-4.955,0.886
0.165,-2.985,-2.976,0.009,2.981,-1.496,-1.484,2.692,1.347,0.461,-0.369,-0.7,-0.258,-1.958,-4.957,0.885
0.166,-2.987,-2.98,0.007,2.984,-1.498,-1.486,2.697,1.353,0.468,-0.364,-0.698,-0.26,-1.962,-4.953,0.882
0.167,-2.984,-2.98,0.004,2.982,-1.494,-1.488,2.696,1.353,0.468,-0.364,-0.698,-0.262,-1.962,-4.954,0.882
0.168,-2.985,-2.983,0.002,2.985,-1.493,-1.491,2.694,1.349,0.461,-0.367,-0.701,-0.263,-1.959,-4.959,0.885
0.169,-2.983,-2.982,0.002,2.983,-1.492,-1.49,2.692,1.351,0.459,-0.374,-0.709,-0.262,-1.961,-4.962,0.886
0.17,-2.986,-2.975,0.011,2.982,-1.498,-1.482,2.695,1.353,0.465,-0.373,-0.71,-0.26,-1.962,-4.954,0.885
0.171,-2.985,-2.97,0.014,2.978,-1.499,-1.478,2.696,1.351,0.465,-0.366,-0.707,-0.255,-1.958,-4.95,0.883
0.172,-2.982,-2.967,0.015,2.974,-1.498,-1.476,2.689,1.345,0.458,-0.368,-0.709,-0.252,-1.956,-4.95,0.885
0.173,-2.987,-2.966,0.021,2.977,-1.504,-1.473,2.689,1.349,0.462,-0.366,-0.71,-0.248,-1.955,-4.946,0.886
0.174,-2.993,-2.969,0.024,2.981,-1.508,-1.472,2.692,1.353,0.463,-0.367,-0.713,-0.246,-1.952,-4.946,0.888
0.175,-2.998,-2.97,0.029,2.984,-1.513,-1.47,2.696,1.355,0.465,-0.365,-0.712,-0.244,-1.952,-4.946,0.888
0.176,-2.993,-2.966,0.025,2.98,-1.508,-1.47,2.696,1.351,0.462,-0.365,-0.708,-0.241,-1.951,-4.946,0.886
0.177,-2.989,-2.967,0.021,2.978,-1.505,-1.473,2.696,1.347,0.459,-0.37,-0.71,-0.241,-1.95,-4.944,0.888
0.178,-2.984,-2.965,0.019,2.974,-1.502,-1.472,2.694,1.353,0.462,-0.369,-0.708,-0.241,-1.95,-4.943,0.886
0.179,-2.974,-2.962,0.013,2.969,-1.493,-1.474,2.687,1.35,0.457,-0.37,-0.707,-0.24,-1.948,-4.949,0.887
0.18,-2.967,-2.964,0.003,2.966,-1.484,-1.48,2.688,1.345,0.461,-0.368,-0.704,-0.238,-1.946,-4.949,0.886
0.181,-2.966,-2.967,-0.002,2.967,-1.482,-1.485,2.691,1.347,0.465,-0.365,-0.703,-0.24,-1.944,-4.953,0.887
0.182,-2.974,-2.972,0.002,2.973,-1.488,-1.485,2.693,1.351,0.466,-0.366,-0.708,-0.248,-1.95,-4.957,0.89
0.183,-2.979,-2.973,0.007,2.977,-1.493,-1.483,2.694,1.349,0.466,-0.363,-0.706,-0.254,-1.954,-4.957,0.887
0.184,-2.982,-2.974,0.008,2.978,-1.495,-1.483,2.692,1.351,0.465,-0.363,-0.705,-0.262,-1.957,-4.96,0.887
0.185,-2.986,-2.974,0.013,2.98,-1.499,-1.48,2.694,1.351,0.467,-0.361,-0.703,-0.265,-1.96,-4.958,0.885
0.186,-2.983,-2.977,0.006,2.981,-1.494,-1.486,2.692,1.345,0.462,-0.365,-0.706,-0.268,-1.962,-4.963,0.889
0.187,-2.977,-2.975,0.001,2.977,-1.489,-1.488,2.692,1.345,0.463,-0.368,-0.71,-0.272,-1.962,-4.96,0.888
0.188,-2.978,-2.967,0.011,2.973,-1.494,-1.478,2.693,1.353,0.468,-0.362,-0.705,-0.271,-1.963,-4.95,0.885
0.189,-2.981,-2.963,0.018,2.973,-1.5,-1.473,2.692,1.351,0.468,-0.361,-0.707,-0.27,-1.962,-4.952,0.886
0.19,-2.984,-2.962,0.022,2.973,-1.503,-1.47,2.694,1.349,0.465,-0.362,-0.709,-0.267,-1.961,-4.951,0.884
0.191,-2.987,-2.96,0.027,2.974,-1.506,-1.466,2.694,1.353,0.467,-0.359,-0.711,-0.262,-1.959,-4.947,0.883
0.192,-2.989,-2.963,0.025,2.976,-1.507,-1.468,2.694,1.349,0.467,-0.359,-0.714,-0.259,-1.956,-4.95,0.884
0.193,-2.988,-2.966,0.022,2.978,-1.505,-1.472,2.693,1.343,0.46,-0.363,-0.717,-0.255,-1.954,-4.949,0.887
0.194,-2.981,-2.964,0.017,2.973,-1.498,-1.474,2.692,1.341,0.463,-0.366,-0.718,-0.255,-1.954,-4.95,0.888
0.195,-2.974,-2.963,0.011,2.969,-1.492,-1.476,2.692,1.347,0.462,-0.365,-0.716,-0.253,-1.952,-4.95,0.888
0.196,-2.974,-2.959,0.015,2.967,-1.494,-1.472,2.69,1.353,0.469,-0.359,-0.714,-0.249,-1.95,-4.942,0.883
0.197,-2.978,-2.962,0.016,2.97,-1.496,-1.473,2.695,1.355,0.471,-0.357,-0.713,-0.25,-1.952,-4.946,0.884
0.198,-2.979,-2.966,0.013,2.973,-1.496,-1.476,2.695,1.353,0.461,-0.362,-0.716,-0.248,-1.952,-4.95,0.889
0.199,-2.979,-2.968,0.011,2.974,-1.496,-1.478,2.689,1.352,0.466,-0.362,-0.718,-0.253,-1.952,-4.95,0.888
0.2,-2.979,-2.968,0.011,2.974,-1.495,-1.478,2.694,1.351,0.467,-0.36,-0.718,-0.255,-1.956,-4.954,0.888
0.201,-2.978,-2.967,0.011,2.973,-1.494,-1.478,2.696,1.351,0.466,-0.362,-0.718,-0.253,-1.956,-4.955,0.888
0.202,-2.979,-2.974,0.005,2.977,-1.492,-1.485,2.691,1.351,0.47,-0.36,-0.72,-0.252,-1.954,-4.96,0.89
0.203,-2.977,-2.97,0.006,2.974,-1.492,-1.482,2.692,1.351,0.471,-0.357,-0.716,-0.245,-1.948,-4.952,0.889
0.204,-2.973,-2.966,0.006,2.97,-1.489,-1.48,2.689,1.351,0.469,-0.357,-0.714,-0.239,-1.946,-4.949,0.89
0.205,-2.966,-2.967,-0.002,2.967,-1.482,-1.484,2.688,1.347,0.466,-0.36,-0.714,-0.239,-1.945,-4.957,0.892
0.206,-2.962,-2.965,-0.002,2.964,-1.48,-1.484,2.688,1.351,0.469,-0.356,-0.712,-0.239,-1.944,-4.954,0.89
0.207,-2.96,-2.965,-0.004,2.962,-1.478,-1.484,2.686,1.353,0.47,-0.358,-0.712,-0.238,-1.942,-4.95,0.89
0.208,-2.966,-2.967,-0.001,2.967,-1.482,-1.484,2.687,1.349,0.468,-0.36,-0.713,-0.243,-1.946,-4.947,0.889
0.209,-2.97,-2.969,0.001,2.97,-1.485,-1.484,2.682,1.345,0.464,-0.36,-0.716,-0.248,-1.948,-4.944,0.888
0.21,-2.97,-2.969,0.001,2.97,-1.486,-1.484,2.681,1.343,0.464,-0.36,-0.717,-0.25,-1.946,-4.945,0.887
0.211,-2.975,-2.966,0.009,2.97,-1.492,-1.478,2.689,1.349,0.469,-0.354,-0.713,-0.25,-1.949,-4.939,0.886
0.212,-2.973,-2.962,0.011,2.967,-1.491,-1.476,2.684,1.35,0.465,-0.357,-0.717,-0.253,-1.95,-4.941,0.888
0.213,-2.97,-2.965,0.006,2.967,-1.488,-1.479,2.682,1.343,0.465,-0.359,-0.717,-0.253,-1.951,-4.947,0.889
0.214,-2.97,-2.965,0.005,2.968,-1.488,-1.48,2.686,1.345,0.468,-0.357,-0.714,-0.248,-1.949,-4.944,0.887
0.215,-2.974,-2.966,0.007,2.97,-1.49,-1.479,2.68,1.347,0.467,-0.357,-0.716,-0.25,-1.948,-4.943,0.888
0.216,-2.974,-2.967,0.006,2.971,-1.49,-1.481,2.678,1.347,0.466,-0.356,-0.716,-0.25,-1.947,-4.941,0.887
0.217,-2.974,-2.966,0.007,2.971,-1.491,-1.48,2.679,1.348,0.463,-0.357,-0.717,-0.249,-1.946,-4.939,0.889
0.218,-2.969,-2.965,0.004,2.967,-1.486,-1.48,2.68,1.349,0.468,-0.356,-0.714,-0.247,-1.947,-4.942,0.89
0.219,-2.958,-2.965,-0.006,2.962,-1.476,-1.486,2.682,1.348,0.467,-0.358,-0.714,-0.246,-1.946,-4.947,0.891
0.22,-2.965,-2.971,-0.006,2.969,-1.479,-1.489,2.685,1.346,0.466,-0.359,-0.718,-0.248,-1.949,-4.949,0.891
0.221,-2.965,-2.972,-0.007,2.969,-1.478,-1.49,2.683,1.347,0.47,-0.355,-0.716,-0.249,-1.95,-4.95,0.891
0.222,-2.963,-2.974,-0.011,2.969,-1.476,-1.492,2.683,1.349,0.467,-0.36,-0.718,-0.251,-1.954,-4.957,0.893
0.223,-2.962,-2.975,-0.014,2.969,-1.474,-1.495,2.683,1.345,0.465,-0.36,-0.719,-0.249,-1.952,-4.956,0.892
0.224,-2.966,-2.981,-0.015,2.974,-1.475,-1.498,2.679,1.341,0.465,-0.359,-0.718,-0.243,-1.946,-4.956,0.892
0.225,-2.988,-2.986,0.002,2.987,-1.494,-1.492,2.684,1.342,0.467,-0.356,-0.714,-0.239,-1.948,-4.954,0.892
0.226,-2.993,-2.982,0.01,2.988,-1.501,-1.486,2.687,1.346,0.464,-0.359,-0.718,-0.245,-1.953,-4.95,0.891
0.227,-2.993,-2.979,0.013,2.986,-1.502,-1.484,2.685,1.354,0.465,-0.362,-0.719,-0.247,-1.952,-4.953,0.892
0.228,-2.994,-2.973,0.021,2.984,-1.508,-1.476,2.683,1.346,0.468,-0.355,-0.714,-0.245,-1.949,-4.949,0.891
0.229,-2.977,-2.963,0.013,2.97,-1.494,-1.476,2.684,1.345,0.465,-0.355,-0.715,-0.247,-1.95,-4.943,0.889
0.23,-2.972,-2.958,0.013,2.966,-1.492,-1.472,2.683,1.349,0.472,-0.352,-0.714,-0.249,-1.947,-4.938,0.887
0.231,-2.981,-2.962,0.019,2.972,-1.5,-1.472,2.682,1.347,0.468,-0.356,-0.717,-0.253,-1.949,-4.934,0.885
0.232,-2.978,-2.962,0.015,2.97,-1.496,-1.474,2.679,1.344,0.463,-0.36,-0.721,-0.255,-1.95,-4.939,0.886
0.233,-2.975,-2.962,0.013,2.969,-1.494,-1.474,2.675,1.34,0.463,-0.358,-0.72,-0.256,-1.95,-4.94,0.888
0.234,-2.972,-2.961,0.011,2.966,-1.492,-1.474,2.679,1.345,0.464,-0.361,-0.721,-0.256,-1.95,-4.937,0.887
0.235,-2.97,-2.959,0.011,2.965,-1.491,-1.474,2.676,1.343,0.467,-0.358,-0.719,-0.252,-1.947,-4.939,0.888
0.236,-2.972,-2.958,0.013,2.965,-1.492,-1.472,2.679,1.343,0.465,-0.354,-0.718,-0.249,-1.947,-4.938,0.887
0.237,-2.974,-2.955,0.019,2.965,-1.496,-1.468,2.686,1.349,0.468,-0.355,-0.717,-0.246,-1.947,-4.94,0.887
0.238,-2.982,-2.957,0.025,2.97,-1.503,-1.466,2.688,1.35,0.47,-0.353,-0.717,-0.243,-1.948,-4.942,0.888
0.239,-2.985,-2.963,0.022,2.974,-1.504,-1.47,2.688,1.349,0.469,-0.356,-0.719,-0.244,-1.95,-4.945,0.89
0.24,-2.979,-2.963,0.017,2.971,-1.498,-1.473,2.686,1.347,0.465,-0.361,-0.72,-0.244,-1.951,-4.948,0.893
0.241,-2.974,-2.966,0.009,2.97,-1.491,-1.478,2.686,1.347,0.457,-0.364,-0.722,-0.24,-1.949,-4.948,0.894
0.242,-2.97,-2.973,-0.003,2.971,-1.483,-1.488,2.682,1.339,0.457,-0.369,-0.724,-0.242,-1.946,-4.953,0.895
0.243,-2.964,-2.97,-0.006,2.967,-1.478,-1.488,2.679,1.341,0.458,-0.368,-0.727,-0.244,-1.946,-4.957,0.896
0.244,-2.966,-2.967,-0.001,2.966,-1.482,-1.484,2.683,1.349,0.459,-0.364,-0.721,-0.239,-1.944,-4.955,0.896
0.245,-2.965,-2.967,-0.002,2.966,-1.481,-1.484,2.68,1.345,0.462,-0.361,-0.719,-0.237,-1.942,-4.951,0.894
0.246,-2.959,-2.969,-0.009,2.964,-1.474,-1.489,2.678,1.343,0.461,-0.364,-0.724,-0.241,-1.946,-4.95,0.893
0.247,-2.959,-2.97,-0.01,2.965,-1.474,-1.49,2.679,1.345,0.461,-0.365,-0.724,-0.243,-1.946,-4.945,0.892
0.248,-2.962,-2.967,-0.005,2.965,-1.478,-1.486,2.679,1.345,0.462,-0.365,-0.724,-0.244,-1.946,-4.942,0.892
0.249,-2.963,-2.962,0.002,2.962,-1.482,-1.48,2.68,1.347,0.462,-0.362,-0.719,-0.241,-1.948,-4.939,0.891
0.25,-2.965,-2.955,0.009,2.96,-1.486,-1.473,2.68,1.349,0.462,-0.36,-0.717,-0.244,-1.949,-4.936,0.889
0.251,-2.961,-2.951,0.009,2.956,-1.484,-1.471,2.68,1.347,0.458,-0.365,-0.72,-0.251,-1.954,-4.934,0.889
0.252,-2.959,-2.949,0.011,2.954,-1.484,-1.47,2.679,1.343,0.462,-0.361,-0.72,-0.255,-1.956,-4.934,0.887
0.253,-2.957,-2.946,0.011,2.951,-1.484,-1.467,2.68,1.345,0.464,-0.359,-0.718,-0.254,-1.957,-4.939,0.887
0.254,-2.951,-2.945,0.007,2.949,-1.479,-1.469,2.68,1.349,0.463,-0.361,-0.717,-0.25,-1.954,-4.94,0.891
0.255,-2.954,-2.951,0.003,2.953,-1.478,-1.474,2.679,1.341,0.459,-0.366,-0.722,-0.249,-1.952,-4.94,0.891
0.256,-2.957,-2.953,0.004,2.955,-1.48,-1.475,2.679,1.343,0.458,-0.367,-0.724,-0.244,-1.95,-4.938,0.89
0.257,-2.964,-2.961,0.004,2.962,-1.484,-1.478,2.679,1.343,0.454,-0.37,-0.726,-0.242,-1.948,-4.941,0.894
0.258,-2.966,-2.967,-0.001,2.967,-1.482,-1.484,2.678,1.337,0.441,-0.38,-0.734,-0.244,-1.95,-4.947,0.895
0.259,-2.966,-2.967,-0.002,2.966,-1.482,-1.484,2.679,1.339,0.452,-0.376,-0.735,-0.243,-1.95,-4.943,0.893
0.26,-2.966,-2.97,-0.004,2.969,-1.482,-1.487,2.68,1.339,0.452,-0.378,-0.74,-0.245,-1.952,-4.946,0.896
0.261,-2.969,-2.971,-0.002,2.97,-1.484,-1.486,2.678,1.335,0.445,-0.382,-0.742,-0.247,-1.95,-4.948,0.897
0.262,-2.977,-2.97,0.006,2.974,-1.492,-1.482,2.678,1.336,0.45,-0.384,-0.743,-0.251,-1.954,-4.951,0.897
0.263,-2.975,-2.97,0.005,2.973,-1.49,-1.482,2.679,1.333,0.444,-0.389,-0.748,-0.256,-1.956,-4.948,0.898
0.264,-2.967,-2.965,0.003,2.966,-1.485,-1.482,2.678,1.331,0.444,-0.387,-0.745,-0.254,-1.954,-4.943,0.898
0.265,-2.962,-2.961,0.001,2.962,-1.482,-1.48,2.678,1.336,0.446,-0.384,-0.74,-0.253,-1.954,-4.946,0.896
0.266,-2.964,-2.963,0,2.964,-1.482,-1.482,2.678,1.337,0.444,-0.383,-0.735,-0.254,-1.956,-4.949,0.897
0.267,-2.966,-2.964,0.002,2.965,-1.483,-1.482,2.678,1.339,0.443,-0.392,-0.738,-0.257,-1.958,-4.946,0.897
0.268,-2.966,-2.961,0.006,2.963,-1.486,-1.477,2.676,1.333,0.441,-0.392,-0.741,-0.259,-1.959,-4.947,0.897
0.269,-2.969,-2.957,0.011,2.963,-1.49,-1.473,2.677,1.334,0.441,-0.388,-0.741,-0.259,-1.958,-4.939,0.896
0.27,-2.97,-2.957,0.013,2.963,-1.491,-1.472,2.679,1.339,0.443,-0.39,-0.743,-0.259,-1.958,-4.934,0.895
0.271,-2.963,-2.95,0.013,2.958,-1.488,-1.468,2.678,1.338,0.445,-0.389,-0.742,-0.258,-1.954,-4.936,0.897
0.272,-2.956,-2.945,0.011,2.951,-1.484,-1.467,2.676,1.339,0.445,-0.387,-0.742,-0.254,-1.951,-4.933,0.897
0.273,-2.959,-2.95,0.009,2.955,-1.484,-1.47,2.674,1.333,0.441,-0.391,-0.743,-0.254,-1.952,-4.934,0.899
0.274,-2.96,-2.954,0.006,2.958,-1.482,-1.474,2.675,1.33,0.439,-0.394,-0.744,-0.253,-1.95,-4.935,0.901
0.275,-2.958,-2.951,0.007,2.954,-1.482,-1.472,2.676,1.335,0.441,-0.393,-0.745,-0.251,-1.95,-4.931,0.899
0.276,-2.959,-2.95,0.009,2.955,-1.484,-1.47,2.675,1.335,0.438,-0.395,-0.747,-0.253,-1.952,-4.933,0.897
0.277,-2.959,-2.953,0.006,2.957,-1.482,-1.474,2.674,1.333,0.435,-0.397,-0.748,-0.254,-1.954,-4.939,0.899
0.278,-2.966,-2.955,0.012,2.961,-1.489,-1.472,2.676,1.335,0.439,-0.396,-0.748,-0.255,-1.957,-4.939,0.9
0.279,-2.975,-2.958,0.017,2.967,-1.496,-1.471,2.679,1.333,0.438,-0.398,-0.748,-0.259,-1.96,-4.942,0.899
0.28,-2.978,-2.962,0.015,2.97,-1.496,-1.474,2.679,1.335,0.441,-0.398,-0.747,-0.263,-1.964,-4.946,0.9
0.281,-2.984,-2.967,0.017,2.976,-1.5,-1.475,2.684,1.335,0.438,-0.401,-0.75,-0.268,-1.97,-4.949,0.9
0.282,-2.986,-2.969,0.018,2.978,-1.502,-1.476,2.684,1.331,0.433,-0.405,-0.754,-0.273,-1.974,-4.955,0.9
0.283,-2.978,-2.967,0.01,2.973,-1.494,-1.478,2.682,1.337,0.436,-0.404,-0.755,-0.276,-1.976,-4.95,0.899
0.284,-2.974,-2.969,0.005,2.972,-1.489,-1.482,2.68,1.334,0.433,-0.406,-0.758,-0.279,-1.977,-4.949,0.897
0.285,-2.974,-2.971,0.003,2.973,-1.488,-1.484,2.678,1.331,0.433,-0.407,-0.763,-0.283,-1.978,-4.947,0.896
0.286,-2.964,-2.971,-0.007,2.967,-1.478,-1.489,2.678,1.329,0.431,-0.407,-0.764,-0.281,-1.976,-4.952,0.899
0.287,-2.954,-2.969,-0.014,2.962,-1.47,-1.491,2.679,1.331,0.43,-0.409,-0.761,-0.275,-1.973,-4.952,0.898
0.288,-2.956,-2.965,-0.009,2.961,-1.473,-1.487,2.676,1.332,0.432,-0.41,-0.764,-0.277,-1.974,-4.945,0.896
0.289,-2.961,-2.962,0,2.962,-1.48,-1.481,2.676,1.329,0.43,-0.412,-0.767,-0.279,-1.974,-4.944,0.896
0.29,-2.954,-2.956,-0.002,2.955,-1.476,-1.479,2.676,1.327,0.428,-0.412,-0.768,-0.28,-1.974,-4.939,0.896
0.291,-2.954,-2.958,-0.004,2.955,-1.474,-1.48,2.675,1.327,0.425,-0.414,-0.768,-0.276,-1.972,-4.938,0.898
0.292,-2.958,-2.962,-0.004,2.96,-1.477,-1.482,2.676,1.325,0.425,-0.416,-0.768,-0.273,-1.97,-4.941,0.898
0.293,-2.96,-2.969,-0.009,2.965,-1.476,-1.489,2.678,1.328,0.424,-0.416,-0.769,-0.27,-1.97,-4.942,0.901
0.294,-2.966,-2.97,-0.003,2.969,-1.482,-1.486,2.68,1.329,0.424,-0.416,-0.767,-0.267,-1.968,-4.944,0.901
0.295,-2.971,-2.967,0.004,2.97,-1.488,-1.482,2.682,1.331,0.426,-0.416,-0.767,-0.271,-1.972,-4.943,0.9
0.296,-2.978,-2.971,0.007,2.975,-1.492,-1.482,2.683,1.329,0.423,-0.417,-0.77,-0.274,-1.975,-4.942,0.901
0.297,-2.982,-2.97,0.011,2.977,-1.496,-1.48,2.683,1.329,0.423,-0.418,-0.772,-0.272,-1.976,-4.941,0.902
0.298,-2.971,-2.971,-0.001,2.971,-1.485,-1.486,2.679,1.331,0.425,-0.418,-0.772,-0.27,-1.972,-4.944,0.903
0.299,-2.955,-2.974,-0.018,2.965,-1.468,-1.496,2.678,1.329,0.423,-0.423,-0.778,-0.277,-1.976,-4.949,0.903
0.3,-2.955,-2.977,-0.021,2.966,-1.467,-1.499,2.679,1.326,0.418,-0.429,-0.784,-0.289,-1.986,-4.955,0.904
0.301,-2.958,-2.978,-0.02,2.967,-1.468,-1.498,2.681,1.321,0.417,-0.428,-0.784,-0.292,-1.987,-4.957,0.906
0.302,-2.965,-2.981,-0.016,2.973,-1.474,-1.498,2.683,1.327,0.419,-0.43,-0.784,-0.292,-1.988,-4.956,0.906
0.303,-2.979,-2.985,-0.005,2.982,-1.487,-1.495,2.685,1.329,0.419,-0.429,-0.784,-0.293,-1.99,-4.958,0.907
0.304,-2.986,-2.986,0,2.986,-1.493,-1.492,2.688,1.33,0.422,-0.426,-0.783,-0.29,-1.99,-4.959,0.906
0.305,-3.001,-2.99,0.012,2.995,-1.506,-1.488,2.691,1.339,0.426,-0.421,-0.78,-0.283,-1.988,-4.96,0.905
0.306,-2.998,-2.991,0.006,2.994,-1.502,-1.492,2.689,1.335,0.421,-0.428,-0.784,-0.285,-1.988,-4.962,0.909
0.307,-2.986,-2.991,-0.006,2.989,-1.49,-1.498,2.683,1.326,0.414,-0.438,-0.791,-0.289,-1.989,-4.96,0.91
0.308,-2.99,-2.986,0.004,2.988,-1.497,-1.491,2.684,1.326,0.418,-0.43,-0.79,-0.286,-1.986,-4.958,0.908
0.309,-2.984,-2.978,0.005,2.982,-1.494,-1.487,2.688,1.329,0.419,-0.431,-0.789,-0.281,-1.984,-4.955,0.908
0.31,-2.979,-2.974,0.006,2.977,-1.493,-1.484,2.689,1.331,0.419,-0.431,-0.787,-0.28,-1.984,-4.952,0.905
0.311,-2.977,-2.973,0.004,2.975,-1.49,-1.484,2.686,1.327,0.417,-0.432,-0.786,-0.281,-1.983,-4.952,0.906
0.312,-2.973,-2.97,0.002,2.971,-1.487,-1.484,2.683,1.325,0.415,-0.436,-0.786,-0.28,-1.981,-4.948,0.909
0.313,-2.97,-2.966,0.003,2.969,-1.486,-1.482,2.687,1.329,0.417,-0.435,-0.788,-0.285,-1.985,-4.942,0.906
0.314,-2.969,-2.966,0.002,2.968,-1.484,-1.482,2.69,1.331,0.42,-0.434,-0.789,-0.29,-1.988,-4.941,0.905
0.315,-2.972,-2.967,0.005,2.97,-1.488,-1.481,2.69,1.33,0.422,-0.432,-0.789,-0.29,-1.99,-4.943,0.906
0.316,-2.966,-2.967,-0.001,2.967,-1.482,-1.484,2.683,1.323,0.415,-0.436,-0.792,-0.294,-1.99,-4.947,0.904
0.317,-2.964,-2.97,-0.006,2.967,-1.479,-1.488,2.682,1.323,0.412,-0.44,-0.795,-0.3,-1.99,-4.949,0.905
0.318,-2.97,-2.976,-0.006,2.974,-1.482,-1.492,2.685,1.321,0.41,-0.444,-0.799,-0.304,-1.994,-4.951,0.907
0.319,-2.98,-2.986,-0.005,2.983,-1.487,-1.496,2.688,1.324,0.414,-0.441,-0.799,-0.303,-1.995,-4.957,0.907
0.32,-2.987,-2.99,-0.004,2.989,-1.492,-1.497,2.69,1.328,0.416,-0.439,-0.797,-0.301,-1.996,-4.961,0.909
0.321,-2.988,-2.993,-0.004,2.99,-1.492,-1.498,2.689,1.331,0.416,-0.441,-0.797,-0.295,-1.996,-4.962,0.91
0.322,-2.985,-2.996,-0.011,2.99,-1.486,-1.504,2.688,1.33,0.415,-0.443,-0.799,-0.294,-1.994,-4.964,0.913
0.323,-2.98,-2.993,-0.013,2.986,-1.484,-1.502,2.688,1.319,0.413,-0.443,-0.799,-0.297,-1.994,-4.96,0.91
0.324,-2.987,-2.996,-0.009,2.992,-1.489,-1.502,2.691,1.317,0.414,-0.441,-0.799,-0.299,-1.998,-4.962,0.91
0.325,-2.992,-2.999,-0.007,2.996,-1.492,-1.504,2.692,1.325,0.413,-0.446,-0.801,-0.3,-1.999,-4.968,0.913
0.326,-2.989,-2.994,-0.006,2.991,-1.491,-1.5,2.695,1.332,0.417,-0.443,-0.8,-0.301,-2.002,-4.97,0.912
0.327,-2.99,-2.994,-0.005,2.993,-1.492,-1.5,2.693,1.331,0.415,-0.443,-0.799,-0.305,-2.006,-4.966,0.911
0.328,-3.001,-2.998,0.004,2.999,-1.502,-1.497,2.695,1.33,0.411,-0.444,-0.798,-0.309,-2.01,-4.963,0.91
0.329,-2.983,-2.987,-0.004,2.986,-1.49,-1.495,2.694,1.329,0.416,-0.442,-0.795,-0.311,-2.01,-4.959,0.908
0.33,-2.965,-2.977,-0.011,2.971,-1.476,-1.494,2.686,1.322,0.412,-0.445,-0.8,-0.314,-2.005,-4.957,0.91
0.331,-2.971,-2.977,-0.005,2.974,-1.482,-1.491,2.684,1.321,0.412,-0.446,-0.803,-0.315,-2.005,-4.954,0.911
0.332,-2.973,-2.975,-0.003,2.974,-1.485,-1.489,2.686,1.326,0.41,-0.447,-0.804,-0.31,-2.004,-4.948,0.909
0.333,-2.975,-2.979,-0.004,2.977,-1.485,-1.492,2.685,1.321,0.407,-0.452,-0.809,-0.309,-2.005,-4.955,0.911
0.334,-2.973,-2.977,-0.004,2.975,-1.484,-1.491,2.687,1.319,0.404,-0.456,-0.812,-0.309,-2.006,-4.956,0.912
0.335,-2.966,-2.971,-0.006,2.969,-1.48,-1.489,2.688,1.32,0.401,-0.455,-0.816,-0.306,-2.003,-4.952,0.912
0.336,-2.974,-2.977,-0.003,2.975,-1.485,-1.49,2.686,1.319,0.409,-0.451,-0.815,-0.307,-2.002,-4.952,0.911
0.337,-2.995,-2.985,0.01,2.99,-1.502,-1.488,2.691,1.323,0.41,-0.452,-0.815,-0.306,-2.007,-4.955,0.914
0.338,-2.988,-2.985,0.003,2.986,-1.496,-1.491,2.691,1.325,0.406,-0.454,-0.817,-0.308,-2.007,-4.961,0.916
0.339,-2.974,-2.982,-0.009,2.978,-1.482,-1.495,2.688,1.317,0.401,-0.457,-0.819,-0.311,-2.009,-4.957,0.913
0.34,-2.97,-2.985,-0.014,2.978,-1.478,-1.5,2.687,1.312,0.402,-0.459,-0.819,-0.314,-2.013,-4.957,0.912
0.341,-2.974,-2.99,-0.017,2.982,-1.479,-1.504,2.687,1.317,0.406,-0.457,-0.816,-0.315,-2.012,-4.968,0.913
0.342,-2.985,-2.99,-0.005,2.987,-1.49,-1.498,2.692,1.322,0.407,-0.455,-0.81,-0.312,-2.013,-4.968,0.913
0.343,-2.985,-2.986,-0.001,2.986,-1.492,-1.494,2.692,1.323,0.406,-0.457,-0.806,-0.311,-2.011,-4.962,0.911
0.344,-2.986,-2.99,-0.004,2.989,-1.491,-1.496,2.691,1.321,0.405,-0.459,-0.81,-0.314,-2.011,-4.963,0.913
0.345,-2.988,-2.993,-0.005,2.99,-1.491,-1.499,2.689,1.318,0.401,-0.461,-0.817,-0.319,-2.014,-4.964,0.913
0.346,-2.988,-2.993,-0.005,2.991,-1.491,-1.499,2.688,1.315,0.399,-0.463,-0.818,-0.321,-2.017,-4.965,0.912
0.347,-2.992,-2.991,0.001,2.992,-1.496,-1.496,2.688,1.318,0.406,-0.461,-0.816,-0.32,-2.015,-4.963,0.912
0.348,-2.987,-2.991,-0.004,2.99,-1.492,-1.498,2.688,1.319,0.405,-0.46,-0.818,-0.32,-2.012,-4.96,0.912
0.349,-2.984,-2.989,-0.004,2.986,-1.49,-1.496,2.69,1.318,0.403,-0.458,-0.815,-0.316,-2.01,-4.96,0.912
0.35,-2.991,-2.986,0.004,2.989,-1.498,-1.49,2.693,1.319,0.406,-0.457,-0.812,-0.311,-2.009,-4.957,0.912
0.351,-2.992,-2.985,0.007,2.989,-1.5,-1.488,2.695,1.324,0.407,-0.455,-0.81,-0.307,-2.006,-4.957,0.912
0.352,-2.988,-2.982,0.006,2.985,-1.497,-1.488,2.693,1.325,0.406,-0.455,-0.809,-0.306,-2.002,-4.957,0.912
0.353,-2.985,-2.983,0.001,2.985,-1.492,-1.492,2.688,1.317,0.402,-0.461,-0.816,-0.313,-2.006,-4.959,0.915
0.354,-2.985,-2.989,-0.004,2.987,-1.49,-1.496,2.686,1.314,0.399,-0.465,-0.819,-0.318,-2.009,-4.962,0.914
0.355,-2.984,-2.989,-0.004,2.987,-1.49,-1.497,2.684,1.315,0.397,-0.468,-0.822,-0.318,-2.01,-4.956,0.913
0.356,-2.978,-2.985,-0.005,2.982,-1.486,-1.495,2.683,1.312,0.399,-0.463,-0.816,-0.315,-2.007,-4.949,0.91
0.357,-2.979,-2.99,-0.011,2.985,-1.484,-1.501,2.686,1.317,0.403,-0.46,-0.812,-0.312,-2.006,-4.956,0.912
0.358,-2.985,-2.998,-0.013,2.992,-1.486,-1.506,2.687,1.316,0.404,-0.46,-0.814,-0.311,-2.006,-4.965,0.916
0.359,-2.99,-3.003,-0.013,2.997,-1.488,-1.508,2.688,1.312,0.404,-0.46,-0.812,-0.307,-2.005,-4.968,0.917
0.36,-2.992,-3.01,-0.018,3.002,-1.486,-1.514,2.69,1.318,0.405,-0.459,-0.813,-0.304,-2.005,-4.97,0.919
0.361,-2.983,-3.007,-0.024,2.995,-1.48,-1.516,2.691,1.321,0.406,-0.461,-0.811,-0.306,-2.006,-4.969,0.917
0.362,-2.979,-3.006,-0.027,2.994,-1.476,-1.516,2.688,1.318,0.404,-0.46,-0.812,-0.308,-2.007,-4.971,0.917
0.363,-2.982,-3.005,-0.024,2.994,-1.479,-1.514,2.689,1.32,0.401,-0.463,-0.814,-0.312,-2.011,-4.971,0.917
0.364,-2.982,-3.007,-0.025,2.994,-1.478,-1.516,2.692,1.319,0.396,-0.469,-0.816,-0.318,-2.015,-4.973,0.918
0.365,-2.979,-3.01,-0.032,2.994,-1.474,-1.521,2.69,1.319,0.401,-0.463,-0.816,-0.32,-2.019,-4.974,0.917
0.366,-2.979,-3.008,-0.029,2.994,-1.475,-1.518,2.693,1.315,0.407,-0.462,-0.815,-0.326,-2.024,-4.975,0.915
0.367,-2.99,-3.013,-0.023,3.002,-1.483,-1.518,2.692,1.31,0.401,-0.462,-0.816,-0.33,-2.024,-4.978,0.916
0.368,-2.986,-3.008,-0.022,2.998,-1.482,-1.516,2.688,1.317,0.402,-0.461,-0.816,-0.334,-2.026,-4.973,0.913
0.369,-2.983,-3.002,-0.019,2.993,-1.482,-1.511,2.689,1.317,0.406,-0.464,-0.817,-0.34,-2.033,-4.968,0.912
0.37,-2.985,-3.002,-0.018,2.994,-1.484,-1.51,2.689,1.315,0.402,-0.465,-0.82,-0.343,-2.034,-4.964,0.913
0.371,-2.983,-2.999,-0.015,2.991,-1.484,-1.508,2.689,1.315,0.4,-0.466,-0.82,-0.343,-2.034,-4.963,0.914
0.372,-2.985,-3.001,-0.017,2.993,-1.484,-1.508,2.691,1.317,0.403,-0.464,-0.818,-0.338,-2.032,-4.965,0.913
0.373,-2.986,-3.004,-0.018,2.995,-1.484,-1.511,2.695,1.319,0.406,-0.465,-0.817,-0.332,-2.03,-4.97,0.916
0.374,-2.994,-3.005,-0.012,2.999,-1.49,-1.508,2.697,1.32,0.405,-0.461,-0.819,-0.324,-2.027,-4.973,0.918
0.375,-2.989,-3.003,-0.015,2.997,-1.487,-1.509,2.695,1.323,0.405,-0.462,-0.821,-0.319,-2.022,-4.971,0.916
0.376,-2.979,-2.998,-0.018,2.989,-1.48,-1.508,2.691,1.317,0.405,-0.463,-0.821,-0.314,-2.017,-4.966,0.916
0.377,-2.988,-3.002,-0.013,2.995,-1.487,-1.508,2.691,1.315,0.4,-0.463,-0.824,-0.31,-2.018,-4.969,0.919
0.378,-2.996,-3.008,-0.012,3.002,-1.492,-1.51,2.692,1.319,0.398,-0.467,-0.825,-0.309,-2.018,-4.973,0.92
0.379,-2.991,-3.014,-0.022,3.002,-1.484,-1.518,2.69,1.315,0.4,-0.469,-0.827,-0.305,-2.014,-4.974,0.922
0.38,-2.994,-3.018,-0.025,3.006,-1.484,-1.522,2.693,1.312,0.403,-0.468,-0.827,-0.302,-2.014,-4.977,0.922
0.381,-3,-3.025,-0.025,3.013,-1.488,-1.524,2.695,1.317,0.397,-0.47,-0.826,-0.304,-2.015,-4.982,0.923
0.382,-3,-3.026,-0.026,3.014,-1.486,-1.526,2.692,1.311,0.393,-0.475,-0.827,-0.309,-2.017,-4.986,0.923
0.383,-2.997,-3.021,-0.025,3.009,-1.486,-1.523,2.689,1.308,0.398,-0.469,-0.823,-0.312,-2.016,-4.982,0.919
0.384,-2.996,-3.025,-0.029,3.01,-1.483,-1.527,2.691,1.31,0.397,-0.472,-0.826,-0.321,-2.021,-4.983,0.917
0.385,-2.999,-3.028,-0.029,3.014,-1.484,-1.528,2.691,1.312,0.398,-0.473,-0.83,-0.324,-2.025,-4.986,0.918
0.386,-3.005,-3.028,-0.022,3.017,-1.491,-1.525,2.694,1.317,0.4,-0.471,-0.828,-0.324,-2.023,-4.983,0.918
0.387,-3.017,-3.027,-0.011,3.022,-1.503,-1.519,2.7,1.317,0.404,-0.471,-0.826,-0.324,-2.026,-4.979,0.917
0.388,-3.02,-3.027,-0.007,3.023,-1.506,-1.517,2.7,1.315,0.405,-0.467,-0.824,-0.321,-2.026,-4.976,0.915
0.389,-2.997,-3.014,-0.017,3.006,-1.49,-1.515,2.696,1.316,0.404,-0.466,-0.823,-0.32,-2.02,-4.972,0.915
0.39,-2.98,-3.002,-0.022,2.991,-1.478,-1.512,2.695,1.319,0.406,-0.465,-0.821,-0.316,-2.015,-4.973,0.915
0.391,-2.986,-3.007,-0.022,2.997,-1.482,-1.515,2.695,1.315,0.404,-0.465,-0.821,-0.312,-2.015,-4.971,0.915
0.392,-2.983,-3.002,-0.018,2.993,-1.482,-1.51,2.696,1.315,0.404,-0.465,-0.821,-0.314,-2.015,-4.966,0.915
0.393,-2.982,-3.003,-0.021,2.993,-1.48,-1.512,2.695,1.318,0.403,-0.466,-0.821,-0.314,-2.014,-4.97,0.918
0.394,-2.989,-3.009,-0.019,2.999,-1.484,-1.514,2.696,1.32,0.405,-0.465,-0.82,-0.312,-2.014,-4.97,0.917
0.395,-2.99,-3.011,-0.021,3.001,-1.484,-1.516,2.695,1.317,0.403,-0.465,-0.82,-0.312,-2.015,-4.968,0.917
0.396,-2.994,-3.017,-0.023,3.006,-1.485,-1.52,2.69,1.312,0.399,-0.467,-0.822,-0.311,-2.014,-4.971,0.918
0.397,-2.998,-3.019,-0.021,3.009,-1.489,-1.52,2.694,1.317,0.394,-0.472,-0.824,-0.316,-2.018,-4.972,0.918
0.398,-2.991,-3.021,-0.03,3.006,-1.48,-1.526,2.696,1.313,0.395,-0.473,-0.827,-0.319,-2.018,-4.976,0.921
0.399,-2.985,-3.016,-0.032,3.001,-1.476,-1.524,2.692,1.31,0.398,-0.469,-0.823,-0.312,-2.014,-4.979,0.922
0.4,-2.983,-3.018,-0.035,3.001,-1.474,-1.527,2.688,1.31,0.394,-0.473,-0.824,-0.31,-2.013,-4.98,0.923
0.401,-2.987,-3.025,-0.037,3.006,-1.474,-1.531,2.689,1.308,0.393,-0.474,-0.826,-0.316,-2.015,-4.978,0.922
0.402,-2.991,-3.026,-0.035,3.009,-1.478,-1.53,2.689,1.31,0.393,-0.474,-0.825,-0.322,-2.019,-4.981,0.921
0.403,-2.986,-3.021,-0.035,3.003,-1.476,-1.528,2.688,1.311,0.399,-0.47,-0.823,-0.325,-2.019,-4.979,0.918
0.404,-2.984,-3.018,-0.035,3.002,-1.474,-1.526,2.69,1.313,0.399,-0.467,-0.818,-0.329,-2.022,-4.978,0.917
0.405,-2.985,-3.022,-0.036,3.003,-1.474,-1.529,2.689,1.311,0.395,-0.474,-0.826,-0.339,-2.031,-4.981,0.919
0.406,-2.991,-3.022,-0.03,3.007,-1.48,-1.526,2.692,1.311,0.396,-0.476,-0.825,-0.344,-2.036,-4.978,0.917
0.407,-3.002,-3.022,-0.02,3.013,-1.491,-1.521,2.694,1.312,0.398,-0.471,-0.82,-0.349,-2.039,-4.974,0.913
0.408,-3.015,-3.022,-0.007,3.019,-1.504,-1.515,2.692,1.312,0.4,-0.468,-0.82,-0.35,-2.041,-4.976,0.913
0.409,-3.012,-3.02,-0.008,3.016,-1.502,-1.514,2.692,1.308,0.396,-0.469,-0.821,-0.347,-2.038,-4.973,0.914
0.41,-2.997,-3.013,-0.016,3.005,-1.49,-1.514,2.693,1.31,0.396,-0.47,-0.823,-0.343,-2.035,-4.965,0.911
0.411,-2.99,-3.007,-0.018,2.999,-1.486,-1.512,2.688,1.313,0.398,-0.468,-0.824,-0.339,-2.032,-4.962,0.911
0.412,-2.992,-3.009,-0.017,3.001,-1.488,-1.513,2.688,1.308,0.391,-0.476,-0.834,-0.336,-2.029,-4.965,0.916
0.413,-2.997,-3.011,-0.015,3.004,-1.49,-1.513,2.689,1.31,0.39,-0.478,-0.838,-0.33,-2.026,-4.967,0.919
0.414,-2.99,-3.006,-0.015,2.998,-1.488,-1.51,2.691,1.315,0.396,-0.472,-0.838,-0.324,-2.025,-4.968,0.918
0.415,-2.991,-3.006,-0.015,2.999,-1.488,-1.51,2.691,1.312,0.399,-0.47,-0.837,-0.317,-2.021,-4.972,0.92
0.416,-2.998,-3.014,-0.017,3.006,-1.49,-1.515,2.688,1.315,0.397,-0.473,-0.84,-0.318,-2.021,-4.972,0.919
0.417,-3.002,-3.018,-0.015,3.01,-1.493,-1.516,2.688,1.307,0.39,-0.477,-0.843,-0.32,-2.021,-4.965,0.92
0.418,-3.002,-3.022,-0.02,3.012,-1.49,-1.521,2.687,1.299,0.392,-0.478,-0.841,-0.318,-2.018,-4.966,0.921
0.419,-2.997,-3.028,-0.031,3.013,-1.482,-1.53,2.689,1.306,0.393,-0.48,-0.837,-0.317,-2.019,-4.974,0.921
0.42,-2.994,-3.03,-0.036,3.012,-1.479,-1.532,2.691,1.308,0.393,-0.477,-0.834,-0.314,-2.018,-4.978,0.923
0.421,-2.986,-3.023,-0.037,3.005,-1.474,-1.53,2.692,1.31,0.399,-0.474,-0.826,-0.312,-2.019,-4.981,0.922
0.422,-2.986,-3.015,-0.029,3.001,-1.478,-1.522,2.696,1.313,0.401,-0.471,-0.819,-0.31,-2.02,-4.982,0.923
0.423,-2.993,-3.015,-0.023,3.005,-1.484,-1.519,2.696,1.315,0.399,-0.471,-0.821,-0.316,-2.022,-4.981,0.921
0.424,-2.993,-3.021,-0.028,3.007,-1.482,-1.524,2.693,1.312,0.4,-0.471,-0.823,-0.318,-2.025,-4.984,0.92
0.425,-2.986,-3.024,-0.037,3.006,-1.474,-1.53,2.69,1.31,0.399,-0.474,-0.826,-0.32,-2.023,-4.987,0.923
0.426,-2.987,-3.029,-0.043,3.008,-1.472,-1.536,2.688,1.304,0.392,-0.482,-0.833,-0.327,-2.026,-4.99,0.924
0.427,-2.989,-3.026,-0.037,3.007,-1.476,-1.531,2.691,1.306,0.394,-0.477,-0.832,-0.326,-2.026,-4.982,0.922
0.428,-2.984,-3.016,-0.032,3.001,-1.476,-1.524,2.693,1.314,0.399,-0.472,-0.828,-0.323,-2.024,-4.978,0.92
0.429,-2.983,-3.014,-0.03,2.999,-1.476,-1.522,2.691,1.308,0.398,-0.473,-0.827,-0.321,-2.022,-4.979,0.921
0.43,-2.988,-3.012,-0.024,3,-1.482,-1.518,2.692,1.307,0.395,-0.473,-0.826,-0.32,-2.022,-4.976,0.921
0.431,-2.991,-3.009,-0.017,3,-1.487,-1.513,2.696,1.31,0.399,-0.469,-0.821,-0.32,-2.022,-4.973,0.918
0.432,-2.995,-3.006,-0.011,3.001,-1.492,-1.508,2.697,1.314,0.4,-0.471,-0.825,-0.321,-2.024,-4.971,0.918
0.433,-2.994,-3.005,-0.011,2.999,-1.49,-1.508,2.693,1.314,0.394,-0.475,-0.828,-0.323,-2.026,-4.971,0.92
0.434,-2.986,-3.003,-0.017,2.994,-1.484,-1.51,2.688,1.307,0.391,-0.476,-0.832,-0.329,-2.026,-4.97,0.919
0.435,-2.987,-3.006,-0.018,2.997,-1.484,-1.512,2.684,1.302,0.39,-0.478,-0.83,-0.33,-2.023,-4.971,0.92
0.436,-2.99,-3.003,-0.014,2.997,-1.488,-1.509,2.687,1.304,0.392,-0.476,-0.824,-0.326,-2.022,-4.965,0.917
0.437,-2.994,-3.003,-0.01,2.998,-1.492,-1.506,2.689,1.308,0.394,-0.475,-0.83,-0.33,-2.027,-4.963,0.915
0.438,-2.997,-3.01,-0.013,3.003,-1.492,-1.512,2.683,1.306,0.386,-0.479,-0.835,-0.333,-2.029,-4.969,0.918
0.439,-2.991,-3.01,-0.019,3.001,-1.486,-1.514,2.682,1.307,0.385,-0.485,-0.835,-0.332,-2.026,-4.965,0.921
0.44,-2.99,-3.012,-0.023,3.001,-1.483,-1.518,2.684,1.304,0.393,-0.481,-0.833,-0.33,-2.023,-4.967,0.922
0.441,-2.99,-3.017,-0.026,3.003,-1.482,-1.522,2.682,1.301,0.391,-0.479,-0.833,-0.328,-2.023,-4.972,0.922
0.442,-2.987,-3.018,-0.031,3.003,-1.478,-1.524,2.682,1.302,0.381,-0.489,-0.84,-0.333,-2.026,-4.974,0.924
0.443,-2.981,-3.011,-0.03,2.996,-1.475,-1.52,2.681,1.298,0.381,-0.489,-0.84,-0.334,-2.026,-4.969,0.923
0.444,-2.979,-3.007,-0.028,2.994,-1.476,-1.517,2.684,1.299,0.386,-0.486,-0.837,-0.331,-2.025,-4.968,0.921
0.445,-2.974,-3.005,-0.031,2.99,-1.472,-1.518,2.684,1.296,0.381,-0.49,-0.839,-0.335,-2.027,-4.97,0.921
0.446,-2.968,-3.002,-0.033,2.985,-1.467,-1.518,2.679,1.296,0.381,-0.491,-0.842,-0.338,-2.03,-4.965,0.921
0.447,-2.983,-3.006,-0.023,2.995,-1.48,-1.514,2.679,1.302,0.383,-0.489,-0.84,-0.338,-2.03,-4.969,0.919
0.448,-2.99,-3.008,-0.018,2.999,-1.486,-1.512,2.683,1.299,0.385,-0.487,-0.84,-0.339,-2.033,-4.972,0.918
0.449,-2.982,-3.002,-0.021,2.993,-1.48,-1.512,2.683,1.299,0.386,-0.484,-0.839,-0.337,-2.031,-4.966,0.917
0.45,-2.982,-3.002,-0.02,2.993,-1.481,-1.512,2.679,1.3,0.382,-0.484,-0.837,-0.334,-2.028,-4.964,0.919
0.451,-2.994,-3.004,-0.009,2.999,-1.492,-1.507,2.683,1.304,0.386,-0.479,-0.834,-0.33,-2.026,-4.962,0.918
0.452,-3.004,-3.006,-0.003,3.006,-1.5,-1.504,2.684,1.303,0.387,-0.478,-0.832,-0.328,-2.028,-4.968,0.918
0.453,-3.003,-3.011,-0.009,3.007,-1.497,-1.51,2.685,1.302,0.389,-0.478,-0.83,-0.326,-2.029,-4.974,0.921
0.454,-2.995,-3.006,-0.011,3.001,-1.492,-1.508,2.689,1.314,0.398,-0.471,-0.825,-0.321,-2.026,-4.968,0.918
0.455,-2.993,-3.005,-0.013,2.999,-1.49,-1.509,2.691,1.312,0.396,-0.471,-0.826,-0.321,-2.025,-4.966,0.916
0.456,-2.991,-3.01,-0.019,3.001,-1.486,-1.515,2.687,1.305,0.389,-0.477,-0.83,-0.32,-2.022,-4.97,0.918
0.457,-2.987,-3.011,-0.024,2.999,-1.481,-1.518,2.681,1.303,0.389,-0.479,-0.831,-0.323,-2.023,-4.971,0.917
0.458,-2.994,-3.015,-0.022,3.005,-1.486,-1.518,2.682,1.305,0.389,-0.48,-0.831,-0.326,-2.026,-4.971,0.917
0.459,-3.002,-3.023,-0.021,3.013,-1.491,-1.522,2.686,1.308,0.391,-0.478,-0.831,-0.329,-2.03,-4.973,0.918
0.46,-3.013,-3.03,-0.018,3.022,-1.498,-1.524,2.686,1.306,0.391,-0.478,-0.833,-0.335,-2.034,-4.979,0.918
0.461,-3.027,-3.035,-0.009,3.031,-1.509,-1.522,2.688,1.31,0.394,-0.476,-0.832,-0.335,-2.036,-4.984,0.919
0.462,-3.026,-3.033,-0.007,3.03,-1.509,-1.52,2.694,1.313,0.395,-0.476,-0.831,-0.337,-2.042,-4.982,0.919
0.463,-3.018,-3.03,-0.013,3.024,-1.502,-1.521,2.693,1.31,0.39,-0.482,-0.835,-0.344,-2.046,-4.975,0.917
0.464,-3.009,-3.027,-0.019,3.018,-1.494,-1.523,2.687,1.307,0.391,-0.478,-0.835,-0.346,-2.045,-4.976,0.917
0.465,-2.998,-3.025,-0.026,3.011,-1.486,-1.525,2.683,1.308,0.391,-0.481,-0.835,-0.346,-2.043,-4.977,0.919
0.466,-2.998,-3.029,-0.03,3.014,-1.484,-1.53,2.683,1.302,0.385,-0.489,-0.842,-0.35,-2.045,-4.984,0.921
0.467,-3,-3.028,-0.028,3.014,-1.486,-1.528,2.683,1.298,0.381,-0.491,-0.843,-0.349,-2.044,-4.981,0.919
0.468,-2.996,-3.019,-0.023,3.007,-1.486,-1.521,2.683,1.304,0.387,-0.486,-0.84,-0.342,-2.038,-4.97,0.916
0.469,-2.989,-3.011,-0.023,3.001,-1.482,-1.518,2.682,1.3,0.383,-0.486,-0.844,-0.339,-2.035,-4.968,0.915
0.47,-2.983,-3.006,-0.022,2.994,-1.48,-1.514,2.679,1.304,0.385,-0.485,-0.844,-0.334,-2.032,-4.963,0.916
0.471,-2.978,-2.997,-0.02,2.987,-1.478,-1.508,2.68,1.31,0.392,-0.48,-0.839,-0.328,-2.028,-4.958,0.913
0.472,-2.975,-2.993,-0.018,2.984,-1.478,-1.505,2.68,1.306,0.388,-0.483,-0.841,-0.326,-2.029,-4.956,0.912
0.473,-2.975,-2.992,-0.016,2.984,-1.48,-1.504,2.684,1.313,0.392,-0.478,-0.836,-0.319,-2.026,-4.954,0.911
0.474,-2.981,-2.991,-0.011,2.986,-1.485,-1.501,2.693,1.314,0.4,-0.474,-0.833,-0.312,-2.022,-4.955,0.91
0.475,-2.996,-2.99,0.006,2.994,-1.5,-1.492,2.696,1.317,0.403,-0.47,-0.829,-0.307,-2.022,-4.952,0.908
0.476,-3.002,-2.989,0.013,2.995,-1.507,-1.488,2.696,1.327,0.399,-0.467,-0.822,-0.305,-2.021,-4.947,0.905
0.477,-2.996,-2.99,0.006,2.993,-1.5,-1.492,2.696,1.32,0.395,-0.476,-0.831,-0.316,-2.027,-4.947,0.905
0.478,-2.994,-2.99,0.004,2.992,-1.498,-1.494,2.692,1.316,0.403,-0.473,-0.832,-0.32,-2.029,-4.948,0.905
0.479,-2.995,-2.988,0.007,2.991,-1.5,-1.49,2.689,1.317,0.403,-0.472,-0.829,-0.321,-2.032,-4.95,0.905
0.48,-2.99,-2.987,0.003,2.989,-1.496,-1.492,2.691,1.322,0.4,-0.474,-0.83,-0.323,-2.034,-4.95,0.905
0.481,-2.982,-2.993,-0.011,2.988,-1.486,-1.502,2.688,1.323,0.404,-0.473,-0.83,-0.325,-2.033,-4.957,0.903
0.482,-2.978,-2.994,-0.016,2.986,-1.48,-1.505,2.68,1.319,0.398,-0.481,-0.833,-0.328,-2.031,-4.957,0.905
0.483,-2.979,-2.987,-0.007,2.983,-1.486,-1.497,2.681,1.317,0.395,-0.478,-0.831,-0.326,-2.03,-4.949,0.903
0.484,-2.982,-2.979,0.003,2.981,-1.492,-1.488,2.68,1.319,0.404,-0.468,-0.825,-0.322,-2.031,-4.946,0.898
0.485,-2.981,-2.973,0.009,2.977,-1.494,-1.482,2.679,1.327,0.413,-0.464,-0.821,-0.321,-2.03,-4.942,0.897
0.486,-2.978,-2.966,0.013,2.973,-1.496,-1.476,2.683,1.333,0.419,-0.46,-0.817,-0.316,-2.027,-4.938,0.896
0.487,-2.976,-2.961,0.015,2.969,-1.495,-1.473,2.679,1.333,0.417,-0.459,-0.816,-0.311,-2.024,-4.928,0.894
0.488,-2.968,-2.958,0.011,2.963,-1.489,-1.473,2.674,1.331,0.414,-0.462,-0.815,-0.314,-2.021,-4.926,0.893
0.489,-2.957,-2.946,0.01,2.952,-1.483,-1.468,2.671,1.33,0.417,-0.458,-0.812,-0.311,-2.016,-4.928,0.892
0.49,-2.965,-2.94,0.025,2.953,-1.495,-1.458,2.679,1.339,0.426,-0.45,-0.807,-0.308,-2.016,-4.92,0.888
0.491,-2.974,-2.937,0.037,2.956,-1.506,-1.45,2.689,1.351,0.433,-0.447,-0.805,-0.306,-2.018,-4.91,0.884
0.492,-2.971,-2.938,0.034,2.954,-1.502,-1.452,2.692,1.355,0.431,-0.447,-0.806,-0.307,-2.018,-4.91,0.882
0.493,-2.973,-2.946,0.026,2.959,-1.499,-1.46,2.688,1.351,0.433,-0.448,-0.803,-0.312,-2.019,-4.91,0.88
0.494,-2.961,-2.944,0.017,2.953,-1.488,-1.464,2.684,1.35,0.433,-0.45,-0.805,-0.32,-2.021,-4.903,0.876
0.495,-2.951,-2.933,0.018,2.942,-1.484,-1.458,2.684,1.353,0.439,-0.442,-0.801,-0.318,-2.019,-4.899,0.873
0.496,-2.958,-2.932,0.027,2.946,-1.492,-1.452,2.678,1.355,0.439,-0.44,-0.8,-0.313,-2.015,-4.895,0.877
0.497,-2.957,-2.932,0.025,2.944,-1.49,-1.454,2.672,1.349,0.435,-0.442,-0.8,-0.307,-2.011,-4.896,0.883
0.498,-2.951,-2.931,0.02,2.942,-1.486,-1.456,2.671,1.347,0.434,-0.446,-0.801,-0.305,-2.012,-4.897,0.885
0.499,-2.953,-2.936,0.018,2.945,-1.485,-1.459,2.671,1.35,0.433,-0.448,-0.804,-0.304,-2.014,-4.896,0.887
0.5,-2.958,-2.941,0.017,2.95,-1.488,-1.462,2.675,1.349,0.44,-0.444,-0.805,-0.302,-2.014,-4.896,0.885
0.501,-2.967,-2.949,0.018,2.958,-1.493,-1.465,2.678,1.35,0.436,-0.449,-0.809,-0.308,-2.021,-4.902,0.887
0.502,-2.974,-2.947,0.026,2.961,-1.5,-1.46,2.683,1.357,0.44,-0.444,-0.806,-0.308,-2.02,-4.905,0.889
0.503,-2.978,-2.938,0.04,2.958,-1.508,-1.45,2.685,1.363,0.446,-0.437,-0.803,-0.305,-2.018,-4.899,0.885
0.504,-2.985,-2.942,0.042,2.963,-1.513,-1.45,2.675,1.358,0.436,-0.443,-0.803,-0.306,-2.017,-4.902,0.888
0.505,-2.978,-2.941,0.037,2.959,-1.508,-1.452,2.667,1.357,0.44,-0.441,-0.802,-0.306,-2.013,-4.902,0.89
0.506,-2.959,-2.933,0.026,2.946,-1.492,-1.454,2.659,1.354,0.438,-0.445,-0.802,-0.306,-2.009,-4.905,0.895
0.507,-2.941,-2.927,0.014,2.934,-1.478,-1.456,2.656,1.353,0.434,-0.445,-0.8,-0.301,-2.002,-4.905,0.895
0.508,-2.942,-2.923,0.019,2.933,-1.48,-1.452,2.66,1.354,0.442,-0.436,-0.795,-0.297,-1.996,-4.896,0.891
0.509,-2.941,-2.919,0.021,2.93,-1.48,-1.449,2.663,1.359,0.446,-0.435,-0.789,-0.291,-1.991,-4.895,0.889
0.51,-2.934,-2.905,0.029,2.92,-1.482,-1.438,2.664,1.376,0.455,-0.427,-0.786,-0.284,-1.986,-4.887,0.884
0.511,-2.938,-2.897,0.042,2.917,-1.49,-1.427,2.672,1.385,0.462,-0.417,-0.779,-0.278,-1.983,-4.881,0.883
0.512,-2.93,-2.893,0.037,2.912,-1.484,-1.428,2.675,1.391,0.469,-0.416,-0.78,-0.275,-1.978,-4.883,0.883
0.513,-2.924,-2.888,0.036,2.906,-1.48,-1.425,2.678,1.402,0.47,-0.416,-0.783,-0.276,-1.977,-4.877,0.881
0.514,-2.916,-2.881,0.035,2.898,-1.476,-1.423,2.68,1.409,0.474,-0.411,-0.775,-0.27,-1.971,-4.874,0.879
0.515,-2.915,-2.882,0.033,2.899,-1.474,-1.425,2.677,1.413,0.485,-0.406,-0.772,-0.27,-1.966,-4.88,0.875
0.516,-2.92,-2.889,0.032,2.905,-1.476,-1.429,2.671,1.417,0.485,-0.401,-0.769,-0.273,-1.966,-4.88,0.873
0.517,-2.916,-2.886,0.03,2.901,-1.472,-1.428,2.668,1.423,0.489,-0.4,-0.767,-0.273,-1.963,-4.88,0.872
0.518,-2.911,-2.881,0.03,2.896,-1.47,-1.425,2.671,1.432,0.499,-0.397,-0.762,-0.271,-1.961,-4.874,0.869
0.519,-2.909,-2.881,0.029,2.896,-1.469,-1.426,2.669,1.437,0.509,-0.387,-0.755,-0.268,-1.958,-4.873,0.864
0.52,-2.907,-2.877,0.029,2.893,-1.468,-1.423,2.664,1.437,0.513,-0.383,-0.751,-0.265,-1.955,-4.872,0.86
0.521,-2.905,-2.877,0.029,2.891,-1.466,-1.424,2.664,1.44,0.519,-0.379,-0.747,-0.261,-1.953,-4.87,0.858
0.522,-2.905,-2.875,0.03,2.89,-1.467,-1.423,2.663,1.442,0.519,-0.379,-0.747,-0.262,-1.954,-4.872,0.857
0.523,-2.899,-2.865,0.035,2.882,-1.466,-1.415,2.659,1.44,0.517,-0.38,-0.748,-0.263,-1.954,-4.86,0.855
0.524,-2.9,-2.865,0.035,2.883,-1.467,-1.415,2.659,1.44,0.521,-0.377,-0.745,-0.26,-1.951,-4.856,0.854
0.525,-2.909,-2.866,0.042,2.888,-1.475,-1.413,2.658,1.431,0.518,-0.377,-0.745,-0.256,-1.95,-4.857,0.855
0.526,-2.906,-2.869,0.037,2.888,-1.472,-1.415,2.651,1.427,0.516,-0.381,-0.745,-0.255,-1.948,-4.859,0.86
0.527,-2.893,-2.865,0.029,2.879,-1.461,-1.417,2.64,1.425,0.512,-0.383,-0.748,-0.257,-1.946,-4.854,0.863
0.528,-2.897,-2.856,0.041,2.876,-1.468,-1.407,2.638,1.415,0.509,-0.384,-0.749,-0.258,-1.954,-4.843,0.861
0.529,-2.908,-2.849,0.059,2.878,-1.483,-1.395,2.638,1.399,0.503,-0.387,-0.75,-0.26,-1.964,-4.837,0.864
0.53,-2.916,-2.84,0.075,2.878,-1.496,-1.383,2.625,1.363,0.486,-0.398,-0.757,-0.265,-1.972,-4.83,0.87
0.531,-2.927,-2.838,0.088,2.883,-1.507,-1.375,2.618,1.325,0.467,-0.411,-0.766,-0.271,-1.98,-4.828,0.876
0.532,-2.934,-2.837,0.098,2.885,-1.516,-1.369,2.611,1.311,0.455,-0.416,-0.768,-0.273,-1.984,-4.827,0.882
0.533,-2.933,-2.841,0.093,2.888,-1.513,-1.374,2.599,1.286,0.446,-0.423,-0.773,-0.276,-1.988,-4.834,0.89
0.534,-2.934,-2.846,0.087,2.89,-1.51,-1.379,2.596,1.282,0.441,-0.428,-0.775,-0.277,-1.988,-4.84,0.896
0.535,-2.933,-2.846,0.086,2.889,-1.509,-1.38,2.598,1.282,0.434,-0.431,-0.776,-0.277,-1.988,-4.838,0.896
0.536,-2.921,-2.849,0.073,2.885,-1.498,-1.387,2.592,1.276,0.426,-0.44,-0.782,-0.281,-1.988,-4.837,0.898
0.537,-2.917,-2.854,0.063,2.886,-1.49,-1.395,2.589,1.28,0.428,-0.433,-0.78,-0.277,-1.983,-4.84,0.901
0.538,-2.921,-2.868,0.053,2.894,-1.486,-1.407,2.586,1.28,0.421,-0.438,-0.782,-0.275,-1.979,-4.851,0.905
0.539,-2.921,-2.884,0.037,2.902,-1.478,-1.423,2.582,1.276,0.419,-0.444,-0.787,-0.277,-1.978,-4.864,0.91
0.54,-2.927,-2.894,0.033,2.911,-1.48,-1.431,2.587,1.276,0.42,-0.445,-0.789,-0.28,-1.979,-4.875,0.911
0.541,-2.929,-2.901,0.028,2.916,-1.478,-1.437,2.589,1.286,0.421,-0.446,-0.792,-0.282,-1.98,-4.884,0.911
0.542,-2.942,-2.907,0.035,2.925,-1.488,-1.436,2.592,1.294,0.427,-0.437,-0.785,-0.274,-1.973,-4.889,0.911
0.543,-2.954,-2.909,0.045,2.932,-1.5,-1.431,2.603,1.306,0.432,-0.434,-0.779,-0.267,-1.968,-4.89,0.909
0.544,-2.945,-2.916,0.029,2.93,-1.486,-1.443,2.602,1.304,0.427,-0.436,-0.785,-0.272,-1.966,-4.896,0.91
0.545,-2.938,-2.921,0.018,2.929,-1.478,-1.452,2.598,1.294,0.419,-0.442,-0.79,-0.274,-1.964,-4.904,0.913
0.546,-2.934,-2.925,0.01,2.929,-1.472,-1.458,2.602,1.296,0.42,-0.446,-0.792,-0.275,-1.964,-4.906,0.916
0.547,-2.934,-2.929,0.005,2.932,-1.47,-1.462,2.606,1.296,0.413,-0.45,-0.794,-0.276,-1.965,-4.908,0.92
0.548,-2.935,-2.928,0.007,2.932,-1.47,-1.46,2.604,1.298,0.417,-0.443,-0.785,-0.269,-1.959,-4.912,0.917
0.549,-2.931,-2.928,0.003,2.929,-1.466,-1.462,2.604,1.299,0.421,-0.434,-0.779,-0.26,-1.95,-4.915,0.918
0.55,-2.928,-2.929,-0.003,2.929,-1.462,-1.466,2.606,1.297,0.414,-0.441,-0.784,-0.263,-1.948,-4.912,0.923
0.551,-2.924,-2.936,-0.011,2.93,-1.456,-1.474,2.6,1.287,0.407,-0.447,-0.787,-0.265,-1.946,-4.912,0.927
0.552,-2.924,-2.937,-0.014,2.93,-1.454,-1.476,2.599,1.284,0.399,-0.45,-0.789,-0.265,-1.948,-4.912,0.93
0.553,-2.925,-2.935,-0.009,2.93,-1.458,-1.472,2.607,1.29,0.404,-0.446,-0.784,-0.263,-1.947,-4.912,0.932
0.554,-2.925,-2.939,-0.015,2.933,-1.456,-1.477,2.606,1.288,0.403,-0.446,-0.784,-0.265,-1.95,-4.92,0.936
0.555,-2.916,-2.942,-0.025,2.929,-1.445,-1.484,2.603,1.281,0.394,-0.452,-0.788,-0.269,-1.951,-4.923,0.938
0.556,-2.915,-2.946,-0.03,2.93,-1.442,-1.488,2.605,1.274,0.389,-0.455,-0.789,-0.271,-1.951,-4.923,0.937
0.557,-2.921,-2.954,-0.034,2.938,-1.444,-1.494,2.607,1.274,0.387,-0.458,-0.793,-0.278,-1.958,-4.928,0.937
0.558,-2.924,-2.958,-0.034,2.941,-1.444,-1.496,2.61,1.28,0.389,-0.457,-0.794,-0.282,-1.962,-4.932,0.936
0.559,-2.929,-2.966,-0.037,2.948,-1.446,-1.502,2.614,1.28,0.386,-0.46,-0.796,-0.287,-1.966,-4.936,0.934
0.56,-2.932,-2.976,-0.045,2.954,-1.443,-1.51,2.619,1.281,0.385,-0.462,-0.8,-0.293,-1.97,-4.942,0.932
0.561,-2.933,-2.982,-0.049,2.958,-1.442,-1.516,2.619,1.28,0.382,-0.464,-0.802,-0.297,-1.972,-4.949,0.932
0.562,-2.934,-2.983,-0.049,2.958,-1.442,-1.516,2.622,1.282,0.385,-0.462,-0.8,-0.294,-1.973,-4.947,0.93
0.563,-2.931,-2.981,-0.05,2.956,-1.44,-1.515,2.628,1.282,0.386,-0.463,-0.801,-0.29,-1.971,-4.943,0.929
0.564,-2.931,-2.988,-0.057,2.959,-1.437,-1.522,2.631,1.278,0.374,-0.47,-0.808,-0.291,-1.974,-4.947,0.931
0.565,-2.928,-2.986,-0.059,2.957,-1.434,-1.522,2.627,1.28,0.382,-0.467,-0.807,-0.287,-1.973,-4.949,0.93
0.566,-2.923,-2.983,-0.06,2.954,-1.431,-1.522,2.63,1.281,0.383,-0.468,-0.809,-0.283,-1.973,-4.95,0.931
0.567,-2.922,-2.985,-0.062,2.954,-1.429,-1.524,2.636,1.286,0.383,-0.467,-0.808,-0.282,-1.973,-4.946,0.931
0.568,-2.922,-2.986,-0.064,2.954,-1.429,-1.524,2.638,1.291,0.387,-0.464,-0.807,-0.278,-1.97,-4.949,0.928
0.569,-2.922,-2.985,-0.063,2.954,-1.429,-1.524,2.636,1.289,0.385,-0.465,-0.806,-0.27,-1.965,-4.952,0.927
0.57,-2.921,-2.977,-0.057,2.949,-1.431,-1.517,2.64,1.296,0.385,-0.463,-0.8,-0.261,-1.96,-4.946,0.926
0.571,-2.927,-2.981,-0.053,2.954,-1.437,-1.517,2.646,1.296,0.383,-0.462,-0.799,-0.26,-1.962,-4.947,0.926
0.572,-2.938,-2.982,-0.043,2.96,-1.447,-1.512,2.647,1.298,0.394,-0.454,-0.794,-0.263,-1.964,-4.947,0.923
0.573,-2.95,-2.979,-0.03,2.965,-1.46,-1.504,2.652,1.305,0.397,-0.453,-0.792,-0.268,-1.971,-4.946,0.92
0.574,-2.951,-2.98,-0.029,2.966,-1.46,-1.504,2.655,1.302,0.393,-0.456,-0.796,-0.275,-1.977,-4.946,0.92
0.575,-2.936,-2.973,-0.037,2.955,-1.449,-1.506,2.652,1.292,0.39,-0.457,-0.796,-0.281,-1.98,-4.942,0.918
0.576,-2.932,-2.973,-0.042,2.952,-1.444,-1.507,2.65,1.288,0.384,-0.461,-0.799,-0.288,-1.984,-4.944,0.92
0.577,-2.943,-2.982,-0.039,2.963,-1.452,-1.51,2.648,1.288,0.384,-0.464,-0.802,-0.296,-1.988,-4.949,0.922
0.578,-2.951,-2.994,-0.043,2.973,-1.454,-1.518,2.65,1.288,0.378,-0.469,-0.806,-0.303,-1.994,-4.957,0.924
0.579,-2.947,-3.002,-0.055,2.975,-1.446,-1.529,2.648,1.282,0.373,-0.475,-0.815,-0.31,-1.998,-4.965,0.928
0.58,-2.942,-3.011,-0.069,2.977,-1.436,-1.54,2.647,1.281,0.365,-0.483,-0.825,-0.317,-2.001,-4.971,0.929
0.581,-2.943,-3.021,-0.078,2.982,-1.433,-1.55,2.648,1.281,0.363,-0.489,-0.831,-0.317,-2,-4.977,0.93
0.582,-2.954,-3.027,-0.072,2.991,-1.44,-1.55,2.653,1.28,0.363,-0.489,-0.834,-0.314,-2.002,-4.979,0.93
0.583,-2.968,-3.029,-0.061,2.998,-1.453,-1.545,2.655,1.28,0.358,-0.491,-0.839,-0.312,-2.004,-4.981,0.932
0.584,-2.975,-3.034,-0.059,3.005,-1.458,-1.547,2.654,1.271,0.358,-0.495,-0.845,-0.315,-2.007,-4.986,0.936
0.585,-2.986,-3.041,-0.056,3.014,-1.464,-1.548,2.659,1.269,0.351,-0.502,-0.853,-0.318,-2.015,-4.989,0.937
0.586,-2.998,-3.042,-0.044,3.021,-1.477,-1.544,2.666,1.273,0.35,-0.505,-0.857,-0.321,-2.021,-4.99,0.938
0.587,-2.997,-3.041,-0.043,3.019,-1.476,-1.542,2.667,1.275,0.356,-0.504,-0.857,-0.325,-2.023,-4.986,0.933
0.588,-2.987,-3.037,-0.05,3.013,-1.468,-1.544,2.666,1.271,0.353,-0.507,-0.857,-0.325,-2.023,-4.987,0.933
0.589,-2.985,-3.035,-0.051,3.01,-1.467,-1.542,2.665,1.271,0.347,-0.51,-0.856,-0.323,-2.022,-4.987,0.934
0.59,-2.993,-3.036,-0.044,3.014,-1.474,-1.54,2.667,1.274,0.349,-0.511,-0.856,-0.324,-2.022,-4.984,0.932
0.591,-3,-3.036,-0.036,3.018,-1.482,-1.536,2.672,1.276,0.352,-0.51,-0.854,-0.327,-2.026,-4.983,0.931
0.592,-3.006,-3.039,-0.033,3.023,-1.486,-1.536,2.674,1.278,0.351,-0.508,-0.852,-0.326,-2.026,-4.979,0.93
0.593,-3.013,-3.042,-0.029,3.028,-1.492,-1.536,2.677,1.278,0.351,-0.51,-0.855,-0.33,-2.03,-4.982,0.932
0.594,-3.007,-3.039,-0.033,3.023,-1.487,-1.536,2.68,1.282,0.352,-0.51,-0.858,-0.334,-2.032,-4.984,0.931
0.595,-3.006,-3.041,-0.035,3.023,-1.485,-1.538,2.675,1.28,0.353,-0.509,-0.856,-0.334,-2.03,-4.984,0.931
0.596,-3.009,-3.042,-0.034,3.026,-1.487,-1.538,2.673,1.281,0.35,-0.508,-0.856,-0.338,-2.033,-4.98,0.929
0.597,-3.006,-3.045,-0.038,3.026,-1.484,-1.542,2.672,1.281,0.352,-0.506,-0.855,-0.344,-2.037,-4.979,0.927
0.598,-3.011,-3.045,-0.034,3.028,-1.488,-1.539,2.671,1.278,0.359,-0.502,-0.852,-0.346,-2.04,-4.977,0.926
0.599,-3.007,-3.038,-0.03,3.022,-1.488,-1.534,2.675,1.284,0.359,-0.502,-0.853,-0.347,-2.042,-4.973,0.925
0.6,-3.001,-3.034,-0.033,3.018,-1.484,-1.534,2.676,1.288,0.362,-0.502,-0.851,-0.351,-2.044,-4.973,0.924
0.601,-3.005,-3.038,-0.034,3.022,-1.486,-1.536,2.675,1.288,0.361,-0.503,-0.855,-0.354,-2.046,-4.973,0.924
0.602,-3.009,-3.042,-0.033,3.026,-1.488,-1.538,2.676,1.286,0.361,-0.505,-0.856,-0.355,-2.047,-4.976,0.922
0.603,-3.009,-3.037,-0.028,3.023,-1.49,-1.532,2.677,1.286,0.359,-0.504,-0.858,-0.353,-2.046,-4.973,0.92
0.604,-3.006,-3.035,-0.029,3.021,-1.489,-1.532,2.674,1.283,0.356,-0.504,-0.861,-0.351,-2.043,-4.971,0.921
0.605,-3.005,-3.034,-0.029,3.02,-1.488,-1.532,2.672,1.283,0.36,-0.504,-0.862,-0.351,-2.045,-4.971,0.921
0.606,-3.006,-3.034,-0.028,3.02,-1.489,-1.53,2.673,1.282,0.359,-0.505,-0.864,-0.35,-2.043,-4.971,0.924
0.607,-3.001,-3.031,-0.03,3.017,-1.486,-1.531,2.675,1.282,0.358,-0.506,-0.867,-0.346,-2.041,-4.971,0.924
0.608,-2.999,-3.031,-0.032,3.015,-1.484,-1.532,2.675,1.284,0.353,-0.509,-0.867,-0.344,-2.039,-4.97,0.924
0.609,-3.003,-3.031,-0.028,3.018,-1.488,-1.53,2.671,1.28,0.352,-0.509,-0.862,-0.34,-2.031,-4.966,0.924
0.61,-3.006,-3.028,-0.022,3.017,-1.492,-1.525,2.669,1.279,0.351,-0.511,-0.864,-0.341,-2.031,-4.96,0.923
0.611,-3.004,-3.021,-0.017,3.013,-1.494,-1.518,2.67,1.28,0.355,-0.507,-0.864,-0.344,-2.036,-4.956,0.922
0.612,-3.002,-3.018,-0.016,3.01,-1.493,-1.518,2.671,1.281,0.359,-0.503,-0.862,-0.343,-2.037,-4.96,0.919
0.613,-3.004,-3.023,-0.019,3.014,-1.492,-1.521,2.673,1.282,0.358,-0.504,-0.861,-0.342,-2.038,-4.963,0.922
0.614,-3.002,-3.022,-0.02,3.013,-1.491,-1.522,2.675,1.282,0.359,-0.506,-0.861,-0.34,-2.037,-4.963,0.922
0.615,-3.002,-3.019,-0.018,3.011,-1.492,-1.519,2.675,1.284,0.356,-0.508,-0.865,-0.343,-2.037,-4.963,0.922
0.616,-3.003,-3.014,-0.011,3.009,-1.496,-1.512,2.671,1.284,0.357,-0.505,-0.862,-0.338,-2.033,-4.96,0.923
0.617,-3.001,-3.013,-0.011,3.007,-1.494,-1.512,2.671,1.282,0.356,-0.506,-0.863,-0.333,-2.031,-4.958,0.923
0.618,-2.999,-3.02,-0.021,3.01,-1.488,-1.52,2.671,1.281,0.355,-0.508,-0.867,-0.34,-2.034,-4.959,0.924
0.619,-3.001,-3.026,-0.025,3.014,-1.488,-1.526,2.672,1.281,0.352,-0.511,-0.867,-0.343,-2.037,-4.962,0.924
0.62,-3.002,-3.026,-0.024,3.015,-1.489,-1.526,2.675,1.282,0.355,-0.508,-0.866,-0.344,-2.038,-4.962,0.923
0.621,-3.001,-3.03,-0.029,3.015,-1.485,-1.53,2.671,1.282,0.356,-0.508,-0.866,-0.346,-2.037,-4.967,0.925
0.622,-2.998,-3.028,-0.029,3.014,-1.484,-1.529,2.669,1.282,0.353,-0.51,-0.866,-0.347,-2.037,-4.968,0.925
0.623,-3.005,-3.026,-0.021,3.016,-1.492,-1.524,2.67,1.278,0.356,-0.51,-0.867,-0.348,-2.041,-4.965,0.922
0.624,-3.014,-3.037,-0.022,3.026,-1.496,-1.53,2.672,1.276,0.356,-0.513,-0.87,-0.35,-2.042,-4.966,0.923
0.625,-3.019,-3.037,-0.017,3.029,-1.501,-1.527,2.675,1.284,0.36,-0.506,-0.865,-0.346,-2.039,-4.968,0.924
0.626,-3.015,-3.033,-0.018,3.025,-1.499,-1.525,2.673,1.28,0.357,-0.507,-0.864,-0.346,-2.04,-4.972,0.925
0.627,-3.012,-3.035,-0.024,3.024,-1.494,-1.53,2.673,1.278,0.356,-0.511,-0.867,-0.347,-2.042,-4.974,0.924
0.628,-3.01,-3.036,-0.025,3.023,-1.492,-1.531,2.675,1.288,0.362,-0.506,-0.864,-0.346,-2.042,-4.972,0.923
0.629,-3.002,-3.03,-0.028,3.015,-1.486,-1.529,2.675,1.286,0.36,-0.506,-0.863,-0.344,-2.039,-4.964,0.921
0.63,-2.998,-3.021,-0.024,3.01,-1.486,-1.522,2.673,1.28,0.358,-0.508,-0.862,-0.34,-2.035,-4.958,0.921
0.631,-2.998,-3.018,-0.019,3.009,-1.49,-1.518,2.673,1.286,0.363,-0.503,-0.858,-0.336,-2.034,-4.955,0.921
0.632,-2.998,-3.018,-0.02,3.009,-1.488,-1.52,2.671,1.285,0.361,-0.503,-0.86,-0.338,-2.034,-4.952,0.921
0.633,-3.003,-3.022,-0.019,3.013,-1.492,-1.52,2.674,1.285,0.356,-0.507,-0.863,-0.34,-2.038,-4.957,0.921
0.634,-3.014,-3.022,-0.009,3.018,-1.502,-1.515,2.68,1.287,0.366,-0.497,-0.854,-0.335,-2.039,-4.958,0.92
0.635,-3.014,-3.026,-0.012,3.019,-1.5,-1.519,2.679,1.286,0.367,-0.499,-0.858,-0.339,-2.042,-4.959,0.92
0.636,-3.008,-3.028,-0.021,3.018,-1.494,-1.524,2.675,1.282,0.36,-0.507,-0.865,-0.345,-2.045,-4.964,0.921
0.637,-3.011,-3.031,-0.019,3.022,-1.496,-1.525,2.671,1.28,0.356,-0.506,-0.864,-0.349,-2.045,-4.964,0.92
0.638,-3.018,-3.038,-0.021,3.028,-1.498,-1.53,2.671,1.282,0.353,-0.512,-0.868,-0.353,-2.047,-4.965,0.921
0.639,-3.019,-3.041,-0.022,3.03,-1.498,-1.532,2.673,1.282,0.354,-0.511,-0.867,-0.353,-2.05,-4.971,0.922
0.64,-3.019,-3.042,-0.024,3.031,-1.498,-1.533,2.671,1.284,0.362,-0.506,-0.865,-0.357,-2.05,-4.974,0.92
0.641,-3.019,-3.045,-0.025,3.032,-1.496,-1.535,2.671,1.282,0.362,-0.506,-0.867,-0.358,-2.052,-4.977,0.921
0.642,-3.021,-3.042,-0.021,3.032,-1.5,-1.532,2.671,1.276,0.356,-0.51,-0.869,-0.36,-2.051,-4.975,0.923
0.643,-3.025,-3.04,-0.016,3.033,-1.504,-1.528,2.671,1.281,0.358,-0.509,-0.868,-0.358,-2.05,-4.966,0.92
0.644,-3.029,-3.042,-0.013,3.036,-1.508,-1.528,2.672,1.282,0.36,-0.506,-0.865,-0.353,-2.047,-4.963,0.92
0.645,-3.024,-3.039,-0.015,3.031,-1.504,-1.527,2.67,1.28,0.36,-0.506,-0.865,-0.354,-2.046,-4.966,0.919
0.646,-3.018,-3.041,-0.022,3.03,-1.498,-1.532,2.672,1.284,0.359,-0.507,-0.867,-0.352,-2.047,-4.968,0.919
0.647,-3.019,-3.042,-0.023,3.031,-1.498,-1.532,2.673,1.281,0.359,-0.506,-0.865,-0.351,-2.045,-4.966,0.918
0.648,-3.015,-3.039,-0.024,3.027,-1.496,-1.532,2.672,1.28,0.362,-0.504,-0.866,-0.355,-2.046,-4.965,0.918
0.649,-3.013,-3.038,-0.025,3.026,-1.494,-1.532,2.671,1.28,0.365,-0.503,-0.865,-0.352,-2.042,-4.964,0.918
0.65,-3.011,-3.03,-0.019,3.021,-1.496,-1.524,2.667,1.282,0.365,-0.501,-0.864,-0.351,-2.038,-4.96,0.917
0.651,-3.01,-3.026,-0.015,3.018,-1.498,-1.52,2.67,1.288,0.368,-0.499,-0.865,-0.353,-2.041,-4.959,0.915
0.652,-3.014,-3.026,-0.011,3.021,-1.501,-1.518,2.675,1.294,0.379,-0.492,-0.867,-0.357,-2.046,-4.957,0.909
0.653,-3.018,-3.027,-0.009,3.022,-1.504,-1.518,2.682,1.303,0.391,-0.485,-0.872,-0.367,-2.053,-4.957,0.902
0.654,-3.019,-3.025,-0.006,3.022,-1.506,-1.516,2.687,1.323,0.409,-0.478,-0.876,-0.374,-2.055,-4.952,0.892
0.655,-3.019,-3.022,-0.002,3.021,-1.508,-1.512,2.693,1.34,0.428,-0.469,-0.876,-0.378,-2.058,-4.949,0.88
0.656,-3.022,-3.017,0.005,3.02,-1.514,-1.506,2.702,1.36,0.454,-0.449,-0.872,-0.382,-2.061,-4.946,0.862
0.657,-3.027,-3.018,0.009,3.023,-1.518,-1.504,2.717,1.392,0.487,-0.435,-0.882,-0.4,-2.075,-4.947,0.845
0.658,-3.026,-3.026,0.001,3.026,-1.512,-1.512,2.732,1.421,0.521,-0.415,-0.888,-0.413,-2.084,-4.955,0.827
0.659,-3.019,-3.026,-0.006,3.022,-1.506,-1.516,2.74,1.449,0.551,-0.397,-0.894,-0.429,-2.091,-4.955,0.808
0.66,-3.022,-3.029,-0.006,3.026,-1.508,-1.518,2.757,1.484,0.587,-0.381,-0.908,-0.455,-2.108,-4.958,0.788
0.661,-3.029,-3.032,-0.004,3.03,-1.512,-1.518,2.777,1.528,0.637,-0.357,-0.925,-0.487,-2.131,-4.962,0.762
0.662,-3.031,-3.036,-0.004,3.034,-1.513,-1.52,2.801,1.593,0.711,-0.325,-0.957,-0.542,-2.167,-4.967,0.727
0.663,-3.033,-3.038,-0.006,3.036,-1.513,-1.522,2.836,1.676,0.804,-0.275,-0.987,-0.597,-2.199,-4.974,0.681
0.664,-3.027,-3.041,-0.013,3.034,-1.507,-1.526,2.859,1.742,0.869,-0.246,-1.017,-0.638,-2.224,-4.979,0.649
0.665,-3.022,-3.049,-0.026,3.036,-1.498,-1.538,2.877,1.801,0.924,-0.231,-1.062,-0.683,-2.251,-4.989,0.626
0.666,-3.025,-3.054,-0.029,3.039,-1.498,-1.542,2.893,1.851,0.977,-0.213,-1.093,-0.713,-2.267,-5.001,0.606
0.667,-3.018,-3.042,-0.024,3.03,-1.498,-1.532,2.902,1.891,1.022,-0.183,-1.097,-0.72,-2.264,-5,0.586
0.668,-3,-3.02,-0.02,3.01,-1.49,-1.52,2.909,1.938,1.085,-0.144,-1.104,-0.74,-2.268,-4.985,0.557
0.669,-2.977,-3.001,-0.023,2.989,-1.477,-1.512,2.914,1.98,1.145,-0.096,-1.103,-0.753,-2.266,-4.973,0.524
0.67,-2.934,-2.977,-0.043,2.955,-1.446,-1.51,2.901,2.009,1.196,-0.038,-1.079,-0.738,-2.234,-4.965,0.504
0.671,-2.897,-2.95,-0.054,2.924,-1.421,-1.502,2.879,2.009,1.224,0.003,-1.051,-0.715,-2.199,-4.954,0.497
0.672,-2.877,-2.917,-0.042,2.897,-1.417,-1.48,2.861,2.006,1.251,0.05,-1.014,-0.689,-2.168,-4.933,0.482
0.673,-2.872,-2.884,-0.011,2.877,-1.429,-1.448,2.845,2.011,1.299,0.126,-0.941,-0.637,-2.12,-4.913,0.469
0.674,-2.865,-2.862,0.004,2.864,-1.435,-1.429,2.83,2.011,1.339,0.193,-0.868,-0.581,-2.067,-4.902,0.458
0.675,-2.825,-2.843,-0.018,2.834,-1.403,-1.431,2.805,2.017,1.383,0.261,-0.791,-0.518,-2.001,-4.888,0.446
0.676,-2.777,-2.797,-0.019,2.788,-1.379,-1.408,2.776,2.017,1.423,0.34,-0.686,-0.428,-1.917,-4.857,0.432
0.677,-2.735,-2.749,-0.013,2.742,-1.361,-1.381,2.756,2.046,1.497,0.448,-0.564,-0.329,-1.826,-4.829,0.41
0.678,-2.696,-2.705,-0.007,2.701,-1.345,-1.356,2.736,2.082,1.595,0.593,-0.408,-0.207,-1.713,-4.798,0.378
0.679,-2.651,-2.647,0.004,2.649,-1.327,-1.321,2.691,2.076,1.66,0.715,-0.241,-0.062,-1.581,-4.753,0.357
0.68,-2.599,-2.575,0.024,2.587,-1.311,-1.276,2.635,2.041,1.683,0.798,-0.093,0.081,-1.458,-4.699,0.355
0.681,-2.558,-2.486,0.073,2.522,-1.315,-1.206,2.575,1.964,1.657,0.854,0.053,0.233,-1.336,-4.63,0.36
0.682,-2.496,-2.406,0.09,2.451,-1.293,-1.158,2.505,1.885,1.615,0.912,0.236,0.419,-1.181,-4.577,0.381
0.683,-2.435,-2.315,0.12,2.375,-1.278,-1.097,2.428,1.781,1.567,0.98,0.425,0.608,-1.026,-4.51,0.4
0.684,-2.386,-2.216,0.171,2.302,-1.278,-1.023,2.35,1.669,1.542,1.085,0.644,0.806,-0.865,-4.433,0.402
0.685,-2.324,-2.133,0.192,2.229,-1.258,-0.971,2.282,1.571,1.523,1.206,0.885,1.027,-0.683,-4.37,0.405
0.686,-2.264,-2.063,0.202,2.164,-1.233,-0.93,2.219,1.49,1.506,1.321,1.132,1.242,-0.505,-4.316,0.407
0.687,-2.199,-1.992,0.208,2.096,-1.204,-0.892,2.15,1.436,1.527,1.468,1.415,1.486,-0.3,-4.258,0.397
0.688,-2.118,-1.903,0.215,2.011,-1.167,-0.844,2.066,1.363,1.533,1.621,1.726,1.756,-0.069,-4.194,0.398
0.689,-2.058,-1.803,0.256,1.931,-1.157,-0.773,1.98,1.214,1.43,1.691,2.029,2.024,0.141,-4.122,0.416
0.69,-2.014,-1.687,0.329,1.851,-1.171,-0.679,1.884,1.014,1.278,1.721,2.309,2.292,0.341,-4.03,0.439
0.691,-1.952,-1.599,0.353,1.776,-1.153,-0.623,1.8,0.892,1.194,1.794,2.601,2.56,0.555,-3.965,0.457
0.692,-1.893,-1.526,0.367,1.71,-1.13,-0.579,1.718,0.742,1.044,1.815,2.872,2.825,0.76,-3.91,0.495
0.693,-1.839,-1.444,0.396,1.642,-1.117,-0.523,1.601,0.498,0.788,1.778,3.13,3.095,0.963,-3.85,0.562
0.694,-1.794,-1.366,0.428,1.581,-1.111,-0.468,1.514,0.288,0.549,1.752,3.396,3.359,1.157,-3.789,0.612
0.695,-1.77,-1.288,0.482,1.529,-1.125,-0.402,1.435,0.064,0.287,1.706,3.646,3.616,1.335,-3.724,0.666
0.696,-1.752,-1.246,0.506,1.499,-1.129,-0.369,1.371,-0.126,0.044,1.616,3.837,3.838,1.482,-3.684,0.733
0.697,-1.74,-1.222,0.518,1.482,-1.129,-0.352,1.341,-0.258,-0.145,1.543,4.033,4.066,1.629,-3.655,0.79
0.698,-1.768,-1.206,0.561,1.487,-1.164,-0.322,1.341,-0.36,-0.296,1.51,4.221,4.245,1.736,-3.626,0.822
0.699,-1.817,-1.243,0.574,1.53,-1.194,-0.335,1.367,-0.423,-0.406,1.482,4.354,4.356,1.794,-3.631,0.846
0.7,-1.841,-1.357,0.483,1.599,-1.162,-0.436,1.404,-0.438,-0.464,1.508,4.518,4.481,1.88,-3.708,0.877
0.701,-1.871,-1.504,0.366,1.688,-1.118,-0.569,1.474,-0.388,-0.456,1.558,4.65,4.556,1.931,-3.813,0.879
0.702,-1.942,-1.586,0.357,1.765,-1.149,-0.614,1.535,-0.39,-0.521,1.498,4.665,4.542,1.889,-3.857,0.905
0.703,-2.042,-1.647,0.396,1.845,-1.218,-0.625,1.587,-0.409,-0.621,1.359,4.566,4.433,1.764,-3.881,0.947
0.704,-2.126,-1.741,0.386,1.934,-1.256,-0.677,1.643,-0.387,-0.691,1.2,4.401,4.284,1.613,-3.929,0.978
0.705,-2.183,-1.816,0.368,2.001,-1.276,-0.724,1.683,-0.369,-0.763,1.03,4.186,4.108,1.448,-3.966,1.021
0.706,-2.24,-1.878,0.362,2.059,-1.301,-0.757,1.724,-0.339,-0.807,0.875,3.925,3.889,1.252,-3.996,1.052
0.707,-2.314,-1.94,0.374,2.128,-1.344,-0.783,1.772,-0.3,-0.857,0.67,3.587,3.617,1.008,-4.021,1.083
0.708,-2.384,-1.988,0.396,2.187,-1.389,-0.796,1.831,-0.263,-0.913,0.42,3.168,3.28,0.71,-4.04,1.109
0.709,-2.443,-2.03,0.414,2.237,-1.429,-0.808,1.9,-0.204,-0.976,0.165,2.743,2.955,0.421,-4.064,1.137
0.71,-2.519,-2.091,0.428,2.305,-1.474,-0.831,1.957,-0.144,-1.052,-0.115,2.281,2.615,0.123,-4.093,1.187
0.711,-2.627,-2.158,0.47,2.393,-1.548,-0.844,2.011,-0.122,-1.145,-0.497,1.61,2.141,-0.294,-4.126,1.244
0.712,-2.76,-2.23,0.53,2.495,-1.645,-0.85,2.097,-0.111,-1.242,-0.906,0.843,1.605,-0.773,-4.16,1.286
0.713,-2.865,-2.31,0.556,2.587,-1.71,-0.877,2.179,-0.067,-1.298,-1.22,0.208,1.149,-1.172,-4.207,1.315
0.714,-2.942,-2.377,0.565,2.659,-1.753,-0.905,2.222,-0.055,-1.364,-1.486,-0.347,0.748,-1.511,-4.252,1.365
0.715,-3.008,-2.442,0.566,2.725,-1.786,-0.938,2.271,-0.004,-1.367,-1.655,-0.806,0.403,-1.796,-4.295,1.387
0.716,-3.054,-2.501,0.554,2.777,-1.804,-0.973,2.316,0.081,-1.329,-1.752,-1.143,0.12,-2.018,-4.34,1.397
0.717,-3.1,-2.566,0.535,2.833,-1.817,-1.015,2.358,0.117,-1.319,-1.805,-1.361,-0.117,-2.196,-4.388,1.407
0.718,-3.142,-2.63,0.512,2.885,-1.827,-1.058,2.408,0.128,-1.33,-1.837,-1.498,-0.288,-2.326,-4.433,1.413
0.719,-3.171,-2.679,0.493,2.925,-1.831,-1.093,2.449,0.108,-1.373,-1.877,-1.581,-0.391,-2.41,-4.463,1.425
0.72,-3.204,-2.733,0.471,2.969,-1.837,-1.131,2.513,0.131,-1.375,-1.879,-1.612,-0.449,-2.461,-4.505,1.412
0.721,-3.235,-2.786,0.449,3.01,-1.841,-1.169,2.582,0.166,-1.366,-1.879,-1.625,-0.493,-2.501,-4.545,1.394
0.722,-3.26,-2.837,0.422,3.049,-1.841,-1.207,2.648,0.214,-1.326,-1.848,-1.609,-0.516,-2.523,-4.581,1.373
0.723,-3.264,-2.906,0.357,3.085,-1.81,-1.274,2.701,0.276,-1.272,-1.802,-1.587,-0.522,-2.52,-4.641,1.369
0.724,-3.269,-2.992,0.278,3.131,-1.773,-1.357,2.746,0.329,-1.238,-1.777,-1.585,-0.541,-2.526,-4.708,1.385
0.725,-3.284,-3.075,0.209,3.18,-1.746,-1.433,2.806,0.404,-1.183,-1.736,-1.577,-0.558,-2.535,-4.778,1.392
0.726,-3.281,-3.154,0.128,3.218,-1.704,-1.513,2.869,0.487,-1.119,-1.683,-1.556,-0.566,-2.529,-4.847,1.394
0.727,-3.277,-3.223,0.054,3.25,-1.665,-1.584,2.923,0.551,-1.067,-1.635,-1.538,-0.58,-2.526,-4.906,1.387
0.728,-3.279,-3.274,0.004,3.276,-1.641,-1.635,2.967,0.597,-1.018,-1.589,-1.515,-0.588,-2.522,-4.954,1.376
0.729,-3.285,-3.309,-0.025,3.297,-1.63,-1.667,3.019,0.635,-0.969,-1.546,-1.494,-0.596,-2.525,-4.986,1.353
0.73,-3.303,-3.341,-0.038,3.322,-1.632,-1.69,3.076,0.65,-0.94,-1.524,-1.488,-0.613,-2.538,-5.011,1.331
0.731,-3.304,-3.352,-0.048,3.328,-1.628,-1.7,3.089,0.667,-0.902,-1.49,-1.477,-0.621,-2.538,-5.025,1.322
0.732,-3.293,-3.349,-0.056,3.321,-1.619,-1.702,3.07,0.674,-0.865,-1.459,-1.464,-0.625,-2.534,-5.029,1.317
0.733,-3.285,-3.337,-0.051,3.312,-1.617,-1.694,3.039,0.671,-0.827,-1.424,-1.444,-0.626,-2.526,-5.021,1.304
0.734,-3.275,-3.314,-0.039,3.295,-1.618,-1.677,3.013,0.677,-0.782,-1.385,-1.424,-0.63,-2.525,-5.011,1.287
0.735,-3.276,-3.303,-0.027,3.29,-1.625,-1.665,3.01,0.692,-0.735,-1.349,-1.411,-0.64,-2.53,-5.008,1.265
0.736,-3.291,-3.303,-0.012,3.296,-1.639,-1.657,3.01,0.71,-0.699,-1.319,-1.399,-0.648,-2.537,-5.01,1.253
0.737,-3.308,-3.309,-0.001,3.309,-1.653,-1.655,3.01,0.713,-0.675,-1.303,-1.393,-0.653,-2.541,-5.019,1.251
0.738,-3.305,-3.304,0.002,3.304,-1.653,-1.651,2.994,0.734,-0.626,-1.266,-1.377,-0.652,-2.533,-5.021,1.236
0.739,-3.288,-3.293,-0.005,3.291,-1.641,-1.649,2.967,0.75,-0.587,-1.232,-1.359,-0.643,-2.518,-5.021,1.23
0.74,-3.269,-3.275,-0.006,3.272,-1.631,-1.641,2.941,0.765,-0.534,-1.188,-1.329,-0.624,-2.492,-5.018,1.218
0.741,-3.25,-3.253,-0.003,3.252,-1.623,-1.628,2.918,0.799,-0.457,-1.126,-1.285,-0.6,-2.457,-5.008,1.196
0.742,-3.228,-3.232,-0.003,3.231,-1.613,-1.617,2.89,0.835,-0.381,-1.059,-1.236,-0.566,-2.413,-5.002,1.177
0.743,-3.204,-3.208,-0.004,3.206,-1.599,-1.606,2.857,0.861,-0.3,-0.986,-1.178,-0.525,-2.361,-4.994,1.151
0.744,-3.186,-3.193,-0.007,3.189,-1.589,-1.601,2.825,0.883,-0.232,-0.921,-1.128,-0.492,-2.318,-4.994,1.137
0.745,-3.159,-3.179,-0.02,3.169,-1.569,-1.599,2.793,0.928,-0.151,-0.855,-1.081,-0.464,-2.276,-4.997,1.127
0.746,-3.128,-3.163,-0.035,3.146,-1.546,-1.599,2.771,0.975,-0.083,-0.796,-1.04,-0.44,-2.239,-4.992,1.105
0.747,-3.106,-3.147,-0.042,3.126,-1.532,-1.594,2.748,1.01,-0.039,-0.756,-1.009,-0.424,-2.211,-4.985,1.082
0.748,-3.087,-3.122,-0.035,3.104,-1.526,-1.579,2.726,1.046,0.025,-0.71,-0.976,-0.405,-2.183,-4.973,1.062
0.749,-3.062,-3.09,-0.029,3.076,-1.516,-1.56,2.692,1.079,0.093,-0.652,-0.937,-0.379,-2.147,-4.961,1.039
0.75,-3.035,-3.067,-0.032,3.051,-1.502,-1.549,2.663,1.115,0.148,-0.605,-0.902,-0.356,-2.111,-4.95,1.018
0.751,-3.011,-3.038,-0.026,3.025,-1.492,-1.532,2.652,1.157,0.208,-0.552,-0.861,-0.328,-2.076,-4.933,0.99
0.752,-2.986,-3.008,-0.021,2.998,-1.482,-1.515,2.64,1.189,0.249,-0.514,-0.83,-0.309,-2.051,-4.92,0.967
0.753,-2.977,-2.998,-0.021,2.987,-1.477,-1.51,2.639,1.216,0.285,-0.494,-0.821,-0.302,-2.042,-4.913,0.958
0.754,-2.981,-2.986,-0.006,2.984,-1.487,-1.496,2.649,1.242,0.325,-0.467,-0.806,-0.291,-2.034,-4.902,0.945
0.755,-2.991,-2.978,0.013,2.985,-1.502,-1.482,2.646,1.251,0.351,-0.444,-0.789,-0.279,-2.022,-4.894,0.936
0.756,-2.99,-2.971,0.019,2.982,-1.504,-1.476,2.64,1.266,0.387,-0.415,-0.768,-0.257,-2.001,-4.888,0.928
0.757,-2.978,-2.97,0.008,2.974,-1.492,-1.48,2.641,1.293,0.411,-0.397,-0.753,-0.237,-1.98,-4.888,0.922
0.758,-2.971,-2.971,-0.001,2.971,-1.485,-1.486,2.646,1.31,0.429,-0.382,-0.742,-0.224,-1.964,-4.887,0.918
0.759,-2.971,-2.968,0.003,2.97,-1.486,-1.482,2.653,1.329,0.463,-0.357,-0.725,-0.214,-1.95,-4.888,0.909
0.76,-2.969,-2.967,0.001,2.969,-1.484,-1.483,2.66,1.349,0.488,-0.338,-0.716,-0.212,-1.946,-4.894,0.903
0.761,-2.963,-2.968,-0.004,2.966,-1.48,-1.486,2.663,1.361,0.502,-0.325,-0.712,-0.215,-1.944,-4.893,0.896
0.762,-2.958,-2.969,-0.011,2.963,-1.474,-1.49,2.663,1.371,0.517,-0.316,-0.707,-0.221,-1.942,-4.888,0.887
0.763,-2.953,-2.966,-0.013,2.959,-1.47,-1.49,2.664,1.374,0.52,-0.311,-0.705,-0.224,-1.94,-4.886,0.884
0.764,-2.947,-2.963,-0.016,2.955,-1.465,-1.49,2.662,1.379,0.522,-0.309,-0.704,-0.224,-1.938,-4.888,0.883
0.765,-2.946,-2.961,-0.015,2.954,-1.464,-1.488,2.664,1.385,0.532,-0.303,-0.699,-0.223,-1.94,-4.888,0.88
0.766,-2.949,-2.962,-0.013,2.955,-1.468,-1.487,2.667,1.383,0.535,-0.3,-0.694,-0.223,-1.94,-4.89,0.88
0.767,-2.953,-2.964,-0.011,2.958,-1.47,-1.488,2.666,1.383,0.538,-0.299,-0.692,-0.222,-1.938,-4.89,0.876
0.768,-2.954,-2.966,-0.013,2.96,-1.47,-1.49,2.663,1.389,0.541,-0.295,-0.69,-0.218,-1.934,-4.889,0.874
0.769,-2.954,-2.965,-0.01,2.96,-1.472,-1.488,2.658,1.389,0.544,-0.293,-0.688,-0.213,-1.929,-4.891,0.874
0.77,-2.959,-2.961,-0.001,2.961,-1.479,-1.48,2.661,1.391,0.549,-0.289,-0.689,-0.207,-1.926,-4.883,0.871
0.771,-2.958,-2.96,-0.002,2.959,-1.478,-1.48,2.661,1.395,0.55,-0.283,-0.688,-0.203,-1.923,-4.88,0.869
0.772,-2.951,-2.955,-0.003,2.954,-1.474,-1.479,2.659,1.396,0.557,-0.278,-0.682,-0.198,-1.919,-4.879,0.868
0.773,-2.951,-2.954,-0.004,2.953,-1.474,-1.479,2.662,1.398,0.568,-0.272,-0.678,-0.193,-1.915,-4.883,0.867
0.774,-2.946,-2.957,-0.011,2.951,-1.468,-1.484,2.659,1.403,0.569,-0.27,-0.674,-0.188,-1.911,-4.888,0.867
0.775,-2.943,-2.955,-0.012,2.95,-1.466,-1.484,2.658,1.403,0.57,-0.267,-0.672,-0.186,-1.909,-4.885,0.866
0.776,-2.943,-2.952,-0.009,2.948,-1.467,-1.48,2.659,1.405,0.575,-0.26,-0.664,-0.181,-1.903,-4.884,0.864
0.777,-2.932,-2.948,-0.015,2.94,-1.458,-1.482,2.658,1.407,0.579,-0.256,-0.658,-0.181,-1.902,-4.885,0.863
0.778,-2.93,-2.95,-0.021,2.941,-1.454,-1.486,2.652,1.406,0.582,-0.257,-0.66,-0.188,-1.903,-4.883,0.861
0.779,-2.933,-2.954,-0.021,2.943,-1.456,-1.487,2.65,1.407,0.585,-0.255,-0.657,-0.188,-1.901,-4.884,0.86
0.78,-2.933,-2.953,-0.019,2.943,-1.457,-1.486,2.651,1.409,0.585,-0.255,-0.658,-0.193,-1.901,-4.885,0.862
0.781,-2.938,-2.956,-0.018,2.947,-1.46,-1.487,2.651,1.41,0.587,-0.255,-0.658,-0.194,-1.901,-4.883,0.86
0.782,-2.936,-2.956,-0.021,2.946,-1.457,-1.488,2.647,1.407,0.596,-0.247,-0.655,-0.191,-1.902,-4.885,0.856
0.783,-2.927,-2.95,-0.022,2.938,-1.452,-1.486,2.648,1.411,0.597,-0.243,-0.653,-0.191,-1.902,-4.883,0.853
0.784,-2.927,-2.95,-0.024,2.939,-1.451,-1.488,2.647,1.411,0.597,-0.242,-0.652,-0.19,-1.897,-4.883,0.854
0.785,-2.928,-2.95,-0.022,2.939,-1.452,-1.486,2.642,1.41,0.597,-0.241,-0.652,-0.191,-1.897,-4.884,0.854
0.786,-2.921,-2.945,-0.024,2.933,-1.448,-1.484,2.643,1.411,0.598,-0.239,-0.648,-0.183,-1.895,-4.885,0.854
0.787,-2.916,-2.936,-0.02,2.926,-1.448,-1.478,2.646,1.421,0.613,-0.229,-0.64,-0.174,-1.889,-4.883,0.852
0.788,-2.921,-2.934,-0.013,2.928,-1.454,-1.474,2.648,1.427,0.618,-0.223,-0.635,-0.173,-1.888,-4.878,0.849
0.789,-2.93,-2.939,-0.009,2.935,-1.46,-1.474,2.644,1.423,0.618,-0.222,-0.635,-0.175,-1.887,-4.873,0.846
0.79,-2.933,-2.937,-0.003,2.936,-1.465,-1.47,2.643,1.424,0.621,-0.218,-0.633,-0.176,-1.886,-4.87,0.843
0.791,-2.928,-2.934,-0.006,2.931,-1.46,-1.47,2.642,1.424,0.622,-0.215,-0.63,-0.171,-1.881,-4.872,0.846
0.792,-2.925,-2.934,-0.009,2.929,-1.457,-1.472,2.638,1.42,0.624,-0.213,-0.628,-0.169,-1.875,-4.872,0.845
0.793,-2.925,-2.933,-0.009,2.929,-1.458,-1.471,2.638,1.423,0.621,-0.215,-0.628,-0.169,-1.877,-4.87,0.844
0.794,-2.912,-2.925,-0.013,2.918,-1.449,-1.469,2.635,1.429,0.624,-0.214,-0.626,-0.166,-1.873,-4.867,0.845
0.795,-2.909,-2.917,-0.009,2.913,-1.45,-1.463,2.637,1.433,0.632,-0.204,-0.618,-0.163,-1.869,-4.864,0.842
0.796,-2.912,-2.917,-0.005,2.914,-1.453,-1.461,2.636,1.431,0.636,-0.2,-0.614,-0.16,-1.867,-4.864,0.839
0.797,-2.906,-2.919,-0.013,2.913,-1.446,-1.466,2.634,1.427,0.633,-0.203,-0.617,-0.162,-1.867,-4.866,0.84
0.798,-2.902,-2.921,-0.018,2.912,-1.442,-1.47,2.631,1.427,0.637,-0.201,-0.615,-0.161,-1.863,-4.865,0.84
0.799,-2.896,-2.919,-0.023,2.908,-1.437,-1.471,2.631,1.429,0.641,-0.197,-0.61,-0.16,-1.863,-4.866,0.841
0.8,-2.901,-2.922,-0.021,2.912,-1.44,-1.472,2.63,1.429,0.641,-0.195,-0.609,-0.159,-1.861,-4.866,0.84
0.801,-2.902,-2.929,-0.026,2.916,-1.438,-1.477,2.628,1.426,0.644,-0.195,-0.609,-0.16,-1.859,-4.867,0.839
0.802,-2.905,-2.928,-0.023,2.917,-1.44,-1.476,2.628,1.429,0.645,-0.193,-0.606,-0.157,-1.857,-4.871,0.839
0.803,-2.908,-2.921,-0.013,2.914,-1.448,-1.466,2.632,1.434,0.649,-0.188,-0.601,-0.152,-1.852,-4.867,0.84
0.804,-2.909,-2.918,-0.011,2.913,-1.448,-1.464,2.63,1.436,0.651,-0.185,-0.598,-0.152,-1.851,-4.863,0.841
0.805,-2.909,-2.917,-0.008,2.913,-1.45,-1.462,2.623,1.435,0.652,-0.183,-0.594,-0.148,-1.849,-4.862,0.84
0.806,-2.9,-2.906,-0.007,2.904,-1.446,-1.457,2.625,1.435,0.658,-0.179,-0.591,-0.145,-1.846,-4.856,0.838
0.807,-2.894,-2.901,-0.008,2.898,-1.443,-1.454,2.626,1.437,0.661,-0.178,-0.589,-0.143,-1.843,-4.854,0.837
0.808,-2.891,-2.897,-0.005,2.894,-1.442,-1.451,2.624,1.438,0.665,-0.173,-0.584,-0.137,-1.837,-4.855,0.837
0.809,-2.901,-2.891,0.01,2.896,-1.456,-1.44,2.626,1.445,0.672,-0.163,-0.574,-0.128,-1.833,-4.851,0.836
0.81,-2.904,-2.89,0.013,2.897,-1.458,-1.438,2.623,1.442,0.673,-0.161,-0.573,-0.129,-1.831,-4.848,0.835
0.811,-2.89,-2.885,0.005,2.888,-1.448,-1.44,2.617,1.44,0.672,-0.161,-0.573,-0.131,-1.828,-4.845,0.834
0.812,-2.888,-2.885,0.004,2.886,-1.446,-1.44,2.613,1.443,0.674,-0.16,-0.57,-0.128,-1.825,-4.84,0.833
0.813,-2.89,-2.891,-0.001,2.891,-1.444,-1.446,2.611,1.441,0.678,-0.157,-0.568,-0.128,-1.826,-4.845,0.833
0.814,-2.89,-2.894,-0.004,2.893,-1.443,-1.449,2.615,1.446,0.683,-0.151,-0.562,-0.126,-1.825,-4.849,0.83
0.815,-2.893,-2.892,0.002,2.893,-1.448,-1.445,2.618,1.452,0.685,-0.147,-0.559,-0.123,-1.824,-4.848,0.83
0.816,-2.901,-2.892,0.009,2.897,-1.454,-1.442,2.614,1.446,0.685,-0.145,-0.556,-0.129,-1.825,-4.846,0.828
0.817,-2.902,-2.894,0.007,2.898,-1.454,-1.444,2.612,1.446,0.686,-0.143,-0.554,-0.134,-1.826,-4.845,0.827
0.818,-2.897,-2.893,0.004,2.895,-1.45,-1.444,2.614,1.45,0.689,-0.142,-0.553,-0.134,-1.825,-4.844,0.827
0.819,-2.893,-2.894,-0.002,2.894,-1.446,-1.448,2.61,1.448,0.692,-0.14,-0.55,-0.131,-1.823,-4.845,0.826
0.82,-2.892,-2.896,-0.005,2.894,-1.443,-1.45,2.608,1.448,0.697,-0.136,-0.548,-0.126,-1.821,-4.847,0.825
0.821,-2.89,-2.898,-0.008,2.894,-1.441,-1.453,2.608,1.448,0.696,-0.135,-0.547,-0.123,-1.817,-4.846,0.827
0.822,-2.888,-2.897,-0.009,2.893,-1.439,-1.453,2.605,1.447,0.697,-0.135,-0.549,-0.117,-1.81,-4.848,0.829
0.823,-2.889,-2.893,-0.004,2.891,-1.442,-1.448,2.604,1.45,0.7,-0.13,-0.545,-0.111,-1.804,-4.844,0.828
0.824,-2.888,-2.895,-0.007,2.892,-1.44,-1.451,2.603,1.449,0.702,-0.127,-0.541,-0.105,-1.8,-4.839,0.827
0.825,-2.882,-2.894,-0.011,2.888,-1.435,-1.452,2.598,1.448,0.701,-0.129,-0.539,-0.101,-1.797,-4.84,0.828
0.826,-2.882,-2.895,-0.013,2.889,-1.434,-1.454,2.596,1.45,0.705,-0.125,-0.537,-0.097,-1.792,-4.838,0.83
0.827,-2.879,-2.895,-0.015,2.887,-1.431,-1.455,2.594,1.45,0.71,-0.118,-0.534,-0.092,-1.786,-4.838,0.827
0.828,-2.876,-2.889,-0.013,2.882,-1.431,-1.451,2.595,1.45,0.707,-0.117,-0.53,-0.088,-1.784,-4.84,0.826
0.829,-2.876,-2.885,-0.008,2.881,-1.433,-1.446,2.595,1.454,0.71,-0.116,-0.526,-0.084,-1.781,-4.838,0.825
0.83,-2.878,-2.882,-0.004,2.881,-1.437,-1.444,2.593,1.453,0.712,-0.112,-0.524,-0.086,-1.78,-4.835,0.825
0.831,-2.876,-2.877,-0.002,2.877,-1.437,-1.44,2.595,1.452,0.718,-0.105,-0.519,-0.088,-1.782,-4.833,0.823
0.832,-2.873,-2.869,0.004,2.872,-1.438,-1.433,2.596,1.462,0.726,-0.097,-0.511,-0.081,-1.778,-4.827,0.82
0.833,-2.866,-2.866,0,2.866,-1.433,-1.433,2.593,1.462,0.723,-0.095,-0.507,-0.074,-1.773,-4.824,0.821
0.834,-2.854,-2.858,-0.004,2.857,-1.425,-1.431,2.591,1.462,0.729,-0.092,-0.504,-0.072,-1.77,-4.82,0.82
0.835,-2.856,-2.851,0.004,2.853,-1.43,-1.423,2.591,1.466,0.734,-0.086,-0.5,-0.069,-1.768,-4.817,0.819
0.836,-2.859,-2.853,0.006,2.856,-1.433,-1.423,2.587,1.46,0.731,-0.084,-0.497,-0.07,-1.764,-4.815,0.818
0.837,-2.861,-2.855,0.006,2.858,-1.433,-1.425,2.586,1.457,0.734,-0.083,-0.496,-0.073,-1.765,-4.816,0.817
0.838,-2.864,-2.854,0.009,2.859,-1.436,-1.423,2.586,1.459,0.739,-0.078,-0.492,-0.074,-1.768,-4.817,0.816
0.839,-2.863,-2.849,0.014,2.857,-1.438,-1.417,2.586,1.464,0.745,-0.071,-0.485,-0.071,-1.766,-4.816,0.815
0.84,-2.877,-2.851,0.025,2.864,-1.451,-1.413,2.591,1.47,0.75,-0.065,-0.475,-0.064,-1.763,-4.818,0.815
0.841,-2.886,-2.853,0.033,2.87,-1.46,-1.411,2.591,1.473,0.756,-0.059,-0.469,-0.058,-1.757,-4.816,0.815
0.842,-2.882,-2.853,0.029,2.868,-1.455,-1.413,2.588,1.472,0.759,-0.055,-0.466,-0.054,-1.753,-4.819,0.815
0.843,-2.878,-2.853,0.025,2.866,-1.452,-1.414,2.585,1.469,0.754,-0.057,-0.467,-0.052,-1.751,-4.82,0.816
0.844,-2.87,-2.853,0.017,2.862,-1.443,-1.419,2.578,1.468,0.757,-0.054,-0.467,-0.047,-1.744,-4.817,0.817
0.845,-2.862,-2.852,0.011,2.857,-1.437,-1.421,2.577,1.468,0.762,-0.05,-0.463,-0.043,-1.74,-4.817,0.816
0.846,-2.857,-2.848,0.01,2.853,-1.433,-1.419,2.579,1.468,0.764,-0.046,-0.459,-0.042,-1.739,-4.816,0.815
0.847,-2.858,-2.844,0.015,2.852,-1.437,-1.415,2.577,1.472,0.77,-0.042,-0.457,-0.038,-1.736,-4.812,0.813
0.848,-2.857,-2.835,0.021,2.846,-1.438,-1.407,2.576,1.474,0.771,-0.037,-0.462,-0.043,-1.738,-4.807,0.813
0.849,-2.856,-2.829,0.027,2.843,-1.441,-1.401,2.575,1.474,0.775,-0.031,-0.456,-0.045,-1.737,-4.801,0.811
0.85,-2.858,-2.825,0.034,2.841,-1.446,-1.395,2.571,1.476,0.781,-0.024,-0.446,-0.046,-1.736,-4.795,0.808
0.851,-2.856,-2.824,0.033,2.841,-1.444,-1.395,2.575,1.484,0.785,-0.019,-0.445,-0.048,-1.738,-4.793,0.807
0.852,-2.851,-2.828,0.024,2.84,-1.437,-1.401,2.572,1.484,0.787,-0.015,-0.439,-0.044,-1.733,-4.798,0.806
0.853,-2.845,-2.829,0.015,2.838,-1.43,-1.407,2.566,1.477,0.789,-0.013,-0.434,-0.043,-1.729,-4.801,0.807
0.854,-2.847,-2.829,0.018,2.838,-1.433,-1.405,2.567,1.478,0.793,-0.005,-0.428,-0.037,-1.725,-4.796,0.805
0.855,-2.848,-2.826,0.021,2.837,-1.435,-1.402,2.562,1.475,0.789,-0.003,-0.422,-0.027,-1.715,-4.79,0.804
0.856,-2.848,-2.822,0.025,2.835,-1.436,-1.399,2.557,1.471,0.789,-0.008,-0.426,-0.023,-1.71,-4.787,0.806
0.857,-2.845,-2.819,0.026,2.833,-1.435,-1.397,2.557,1.474,0.793,-0.004,-0.426,-0.018,-1.708,-4.785,0.806
0.858,-2.842,-2.824,0.018,2.833,-1.43,-1.403,2.554,1.477,0.797,0.003,-0.42,-0.008,-1.699,-4.788,0.807
0.859,-2.84,-2.826,0.013,2.833,-1.426,-1.407,2.554,1.484,0.8,0.005,-0.415,0.001,-1.69,-4.793,0.809
0.86,-2.836,-2.825,0.011,2.83,-1.423,-1.407,2.553,1.478,0.795,0.003,-0.416,0.009,-1.683,-4.79,0.814
0.861,-2.834,-2.825,0.009,2.829,-1.421,-1.407,2.552,1.482,0.802,0.009,-0.41,0.019,-1.677,-4.788,0.814
0.862,-2.832,-2.819,0.013,2.826,-1.422,-1.403,2.548,1.485,0.816,0.02,-0.4,0.026,-1.671,-4.785,0.81
0.863,-2.828,-2.811,0.018,2.82,-1.423,-1.397,2.545,1.481,0.823,0.028,-0.391,0.03,-1.665,-4.782,0.809
0.864,-2.827,-2.812,0.015,2.82,-1.421,-1.398,2.546,1.486,0.822,0.032,-0.387,0.027,-1.665,-4.786,0.808
0.865,-2.826,-2.812,0.014,2.82,-1.42,-1.399,2.542,1.484,0.824,0.033,-0.385,0.024,-1.666,-4.787,0.807
0.866,-2.824,-2.806,0.018,2.816,-1.421,-1.394,2.541,1.488,0.827,0.037,-0.38,0.022,-1.667,-4.782,0.807
0.867,-2.828,-2.8,0.027,2.814,-1.427,-1.387,2.539,1.489,0.833,0.043,-0.374,0.023,-1.664,-4.779,0.803
0.868,-2.83,-2.795,0.035,2.813,-1.433,-1.379,2.537,1.49,0.841,0.051,-0.367,0.026,-1.661,-4.772,0.8
0.869,-2.829,-2.791,0.037,2.81,-1.433,-1.377,2.535,1.492,0.841,0.055,-0.364,0.027,-1.659,-4.769,0.799
0.87,-2.824,-2.784,0.04,2.804,-1.431,-1.373,2.534,1.491,0.848,0.061,-0.356,0.034,-1.653,-4.769,0.798
0.871,-2.813,-2.773,0.041,2.793,-1.427,-1.366,2.539,1.495,0.855,0.071,-0.346,0.04,-1.653,-4.763,0.796
0.872,-2.805,-2.768,0.038,2.787,-1.421,-1.365,2.538,1.505,0.86,0.077,-0.344,0.043,-1.649,-4.761,0.797
0.873,-2.801,-2.767,0.035,2.784,-1.417,-1.365,2.534,1.506,0.866,0.082,-0.339,0.049,-1.642,-4.763,0.796
0.874,-2.797,-2.76,0.038,2.778,-1.417,-1.361,2.531,1.502,0.871,0.091,-0.33,0.056,-1.637,-4.758,0.795
0.875,-2.788,-2.756,0.034,2.772,-1.411,-1.361,2.526,1.502,0.873,0.095,-0.326,0.06,-1.631,-4.754,0.793
0.876,-2.783,-2.76,0.023,2.772,-1.403,-1.368,2.523,1.5,0.873,0.098,-0.325,0.063,-1.627,-4.756,0.794
0.877,-2.788,-2.765,0.023,2.777,-1.405,-1.371,2.522,1.506,0.876,0.103,-0.324,0.069,-1.621,-4.756,0.796
0.878,-2.793,-2.769,0.024,2.781,-1.408,-1.373,2.518,1.507,0.884,0.111,-0.321,0.073,-1.615,-4.755,0.794
0.879,-2.795,-2.777,0.017,2.787,-1.405,-1.381,2.51,1.504,0.885,0.112,-0.318,0.081,-1.608,-4.758,0.795
0.88,-2.788,-2.78,0.009,2.784,-1.399,-1.385,2.51,1.508,0.887,0.116,-0.312,0.086,-1.603,-4.758,0.795
0.881,-2.787,-2.776,0.011,2.782,-1.399,-1.383,2.515,1.512,0.9,0.127,-0.303,0.089,-1.601,-4.758,0.793
0.882,-2.785,-2.775,0.011,2.78,-1.398,-1.382,2.514,1.514,0.905,0.135,-0.294,0.094,-1.597,-4.757,0.791
0.883,-2.776,-2.769,0.007,2.772,-1.391,-1.381,2.511,1.516,0.908,0.14,-0.289,0.097,-1.594,-4.755,0.789
0.884,-2.766,-2.76,0.006,2.763,-1.386,-1.377,2.506,1.516,0.916,0.148,-0.281,0.103,-1.587,-4.755,0.788
0.885,-2.762,-2.756,0.006,2.759,-1.383,-1.375,2.503,1.513,0.922,0.154,-0.274,0.106,-1.583,-4.752,0.786
0.886,-2.76,-2.755,0.006,2.757,-1.383,-1.373,2.502,1.516,0.923,0.157,-0.271,0.109,-1.581,-4.748,0.787
0.887,-2.756,-2.748,0.009,2.752,-1.383,-1.369,2.501,1.524,0.93,0.166,-0.261,0.117,-1.573,-4.745,0.786
0.888,-2.754,-2.738,0.017,2.746,-1.385,-1.361,2.502,1.533,0.94,0.178,-0.249,0.126,-1.568,-4.739,0.782
0.889,-2.752,-2.732,0.021,2.742,-1.387,-1.355,2.502,1.534,0.949,0.186,-0.242,0.13,-1.563,-4.737,0.78
0.89,-2.75,-2.729,0.022,2.74,-1.385,-1.353,2.497,1.532,0.956,0.194,-0.236,0.134,-1.556,-4.734,0.779
0.891,-2.74,-2.723,0.018,2.732,-1.379,-1.352,2.491,1.532,0.955,0.197,-0.233,0.139,-1.55,-4.733,0.779
0.892,-2.737,-2.724,0.013,2.731,-1.375,-1.355,2.49,1.529,0.956,0.202,-0.23,0.141,-1.548,-4.729,0.778
0.893,-2.74,-2.724,0.017,2.732,-1.378,-1.353,2.489,1.54,0.965,0.209,-0.222,0.149,-1.54,-4.726,0.776
0.894,-2.755,-2.72,0.035,2.737,-1.395,-1.343,2.49,1.55,0.977,0.218,-0.21,0.16,-1.535,-4.721,0.775
0.895,-2.763,-2.718,0.045,2.74,-1.404,-1.336,2.487,1.544,0.985,0.233,-0.199,0.168,-1.528,-4.718,0.773
0.896,-2.75,-2.711,0.039,2.731,-1.395,-1.336,2.478,1.542,0.99,0.24,-0.192,0.173,-1.518,-4.716,0.771
0.897,-2.75,-2.712,0.038,2.731,-1.394,-1.337,2.477,1.544,0.991,0.244,-0.188,0.178,-1.514,-4.714,0.772
0.898,-2.741,-2.705,0.037,2.723,-1.389,-1.334,2.478,1.55,1,0.255,-0.177,0.19,-1.504,-4.712,0.771
0.899,-2.736,-2.702,0.034,2.719,-1.385,-1.333,2.475,1.553,1.01,0.263,-0.171,0.196,-1.498,-4.713,0.772
0.9,-2.736,-2.705,0.03,2.72,-1.383,-1.338,2.473,1.555,1.016,0.27,-0.164,0.199,-1.494,-4.716,0.771
0.901,-2.734,-2.704,0.029,2.72,-1.381,-1.337,2.469,1.557,1.02,0.275,-0.157,0.205,-1.486,-4.714,0.77
0.902,-2.728,-2.703,0.025,2.716,-1.377,-1.339,2.466,1.558,1.026,0.283,-0.147,0.214,-1.478,-4.712,0.769
0.903,-2.72,-2.697,0.023,2.708,-1.371,-1.337,2.463,1.56,1.038,0.297,-0.135,0.222,-1.47,-4.708,0.764
0.904,-2.718,-2.696,0.023,2.707,-1.371,-1.336,2.458,1.563,1.041,0.304,-0.128,0.228,-1.464,-4.707,0.766
0.905,-2.708,-2.692,0.017,2.7,-1.363,-1.337,2.455,1.563,1.047,0.314,-0.117,0.235,-1.456,-4.704,0.765
0.906,-2.7,-2.687,0.013,2.694,-1.357,-1.337,2.455,1.562,1.054,0.32,-0.113,0.24,-1.451,-4.704,0.762
0.907,-2.697,-2.686,0.012,2.691,-1.354,-1.337,2.454,1.57,1.063,0.328,-0.106,0.246,-1.446,-4.706,0.762
0.908,-2.693,-2.68,0.013,2.687,-1.353,-1.333,2.448,1.573,1.071,0.34,-0.092,0.257,-1.435,-4.7,0.76
0.909,-2.694,-2.674,0.021,2.684,-1.357,-1.327,2.446,1.575,1.08,0.35,-0.083,0.265,-1.427,-4.693,0.756
0.91,-2.692,-2.667,0.026,2.679,-1.359,-1.32,2.443,1.578,1.089,0.361,-0.07,0.275,-1.417,-4.687,0.755
0.911,-2.688,-2.66,0.029,2.674,-1.359,-1.315,2.436,1.577,1.091,0.37,-0.06,0.283,-1.409,-4.683,0.753
0.912,-2.687,-2.659,0.029,2.672,-1.357,-1.315,2.43,1.579,1.097,0.377,-0.053,0.289,-1.402,-4.683,0.752
0.913,-2.683,-2.651,0.032,2.667,-1.357,-1.31,2.427,1.583,1.109,0.387,-0.043,0.301,-1.393,-4.679,0.751
0.914,-2.683,-2.642,0.041,2.663,-1.361,-1.3,2.429,1.589,1.119,0.4,-0.029,0.315,-1.383,-4.674,0.75
0.915,-2.682,-2.642,0.04,2.662,-1.361,-1.3,2.428,1.595,1.129,0.412,-0.017,0.33,-1.371,-4.67,0.749
0.916,-2.675,-2.638,0.037,2.656,-1.355,-1.3,2.42,1.592,1.133,0.421,-0.007,0.344,-1.357,-4.665,0.749
0.917,-2.66,-2.635,0.025,2.647,-1.343,-1.304,2.413,1.591,1.136,0.425,-0.001,0.355,-1.345,-4.662,0.751
0.918,-2.655,-2.639,0.017,2.647,-1.336,-1.31,2.409,1.593,1.145,0.436,0.013,0.368,-1.333,-4.66,0.75
0.919,-2.658,-2.645,0.013,2.651,-1.335,-1.315,2.404,1.593,1.151,0.446,0.025,0.379,-1.323,-4.663,0.749
0.92,-2.647,-2.647,0.001,2.647,-1.323,-1.323,2.4,1.597,1.158,0.455,0.036,0.386,-1.314,-4.67,0.749
0.921,-2.635,-2.639,-0.003,2.637,-1.315,-1.321,2.397,1.597,1.168,0.468,0.049,0.393,-1.306,-4.669,0.746
0.922,-2.626,-2.627,-0.001,2.627,-1.312,-1.313,2.393,1.601,1.173,0.475,0.058,0.398,-1.302,-4.665,0.745
0.923,-2.619,-2.619,0.001,2.619,-1.309,-1.308,2.39,1.603,1.181,0.486,0.073,0.404,-1.294,-4.657,0.742
0.924,-2.619,-2.618,0.002,2.618,-1.31,-1.308,2.384,1.604,1.186,0.495,0.084,0.406,-1.288,-4.654,0.74
0.925,-2.618,-2.618,0.001,2.618,-1.309,-1.308,2.381,1.607,1.192,0.504,0.094,0.405,-1.286,-4.651,0.738
0.926,-2.61,-2.611,0.001,2.611,-1.305,-1.305,2.376,1.609,1.202,0.517,0.107,0.41,-1.28,-4.646,0.734
0.927,-2.603,-2.6,0.004,2.602,-1.304,-1.298,2.37,1.613,1.212,0.528,0.119,0.422,-1.269,-4.644,0.732
0.928,-2.604,-2.594,0.011,2.599,-1.308,-1.291,2.373,1.615,1.222,0.542,0.135,0.439,-1.255,-4.641,0.732
0.929,-2.599,-2.584,0.015,2.592,-1.307,-1.284,2.365,1.621,1.228,0.55,0.145,0.456,-1.242,-4.635,0.73
0.93,-2.592,-2.575,0.018,2.584,-1.304,-1.279,2.358,1.621,1.234,0.561,0.158,0.473,-1.228,-4.628,0.729
0.931,-2.591,-2.568,0.024,2.58,-1.307,-1.272,2.36,1.622,1.242,0.574,0.171,0.492,-1.215,-4.623,0.728
0.932,-2.588,-2.565,0.024,2.576,-1.306,-1.27,2.353,1.623,1.25,0.583,0.179,0.507,-1.201,-4.619,0.728
0.933,-2.576,-2.559,0.018,2.568,-1.296,-1.271,2.349,1.622,1.257,0.594,0.189,0.52,-1.189,-4.617,0.729
0.934,-2.561,-2.546,0.015,2.554,-1.288,-1.265,2.344,1.629,1.26,0.596,0.196,0.534,-1.179,-4.612,0.73
0.935,-2.562,-2.543,0.019,2.554,-1.291,-1.262,2.339,1.631,1.266,0.608,0.211,0.553,-1.161,-4.607,0.728
0.936,-2.576,-2.543,0.034,2.56,-1.305,-1.254,2.337,1.635,1.278,0.626,0.234,0.572,-1.146,-4.603,0.725
0.937,-2.572,-2.539,0.033,2.556,-1.302,-1.253,2.332,1.628,1.283,0.633,0.247,0.582,-1.137,-4.603,0.725
0.938,-2.561,-2.538,0.024,2.55,-1.292,-1.256,2.327,1.629,1.288,0.639,0.259,0.588,-1.129,-4.604,0.725
0.939,-2.561,-2.531,0.03,2.546,-1.295,-1.25,2.326,1.639,1.298,0.653,0.277,0.601,-1.12,-4.603,0.723
0.94,-2.556,-2.526,0.031,2.541,-1.293,-1.247,2.325,1.639,1.305,0.663,0.292,0.615,-1.109,-4.603,0.723
0.941,-2.55,-2.523,0.028,2.537,-1.288,-1.248,2.318,1.636,1.304,0.665,0.302,0.626,-1.097,-4.601,0.725
0.942,-2.539,-2.519,0.019,2.53,-1.279,-1.25,2.312,1.634,1.31,0.675,0.312,0.638,-1.083,-4.596,0.724
0.943,-2.531,-2.514,0.017,2.523,-1.274,-1.248,2.306,1.637,1.315,0.686,0.325,0.652,-1.071,-4.592,0.722
0.944,-2.527,-2.51,0.018,2.519,-1.272,-1.246,2.298,1.633,1.316,0.693,0.337,0.665,-1.06,-4.588,0.721
0.945,-2.517,-2.507,0.01,2.512,-1.263,-1.248,2.293,1.631,1.321,0.699,0.348,0.677,-1.048,-4.588,0.723
0.946,-2.51,-2.501,0.009,2.505,-1.259,-1.246,2.288,1.638,1.331,0.709,0.362,0.691,-1.034,-4.583,0.724
0.947,-2.506,-2.492,0.015,2.499,-1.26,-1.238,2.283,1.641,1.337,0.718,0.376,0.702,-1.025,-4.572,0.721
0.948,-2.502,-2.486,0.016,2.494,-1.259,-1.235,2.277,1.639,1.335,0.723,0.386,0.715,-1.013,-4.567,0.72
0.949,-2.499,-2.48,0.019,2.49,-1.259,-1.23,2.273,1.639,1.341,0.732,0.4,0.729,-1.001,-4.562,0.718
0.95,-2.495,-2.471,0.025,2.483,-1.26,-1.224,2.269,1.636,1.347,0.74,0.412,0.74,-0.991,-4.556,0.717
0.951,-2.486,-2.457,0.029,2.471,-1.258,-1.214,2.263,1.635,1.351,0.749,0.424,0.749,-0.98,-4.547,0.716
0.952,-2.482,-2.453,0.03,2.467,-1.256,-1.211,2.263,1.64,1.352,0.753,0.436,0.759,-0.973,-4.546,0.716
0.953,-2.478,-2.459,0.019,2.468,-1.248,-1.22,2.259,1.637,1.355,0.757,0.444,0.765,-0.969,-4.551,0.716
0.954,-2.47,-2.454,0.017,2.462,-1.243,-1.218,2.254,1.635,1.36,0.765,0.455,0.771,-0.96,-4.548,0.713
0.955,-2.465,-2.447,0.018,2.456,-1.241,-1.214,2.252,1.639,1.361,0.771,0.467,0.784,-0.952,-4.543,0.712
0.956,-2.461,-2.44,0.021,2.45,-1.24,-1.209,2.247,1.637,1.365,0.781,0.48,0.794,-0.942,-4.536,0.71
0.957,-2.461,-2.436,0.025,2.448,-1.242,-1.205,2.245,1.633,1.369,0.786,0.495,0.801,-0.935,-4.534,0.71
0.958,-2.466,-2.437,0.03,2.451,-1.248,-1.203,2.241,1.635,1.371,0.786,0.496,0.802,-0.934,-4.535,0.711
0.959,-2.467,-2.436,0.032,2.451,-1.25,-1.202,2.236,1.635,1.37,0.791,0.5,0.805,-0.928,-4.535,0.71
0.96,-2.454,-2.437,0.018,2.446,-1.236,-1.209,2.228,1.626,1.367,0.79,0.506,0.812,-0.92,-4.534,0.711
0.961,-2.444,-2.433,0.011,2.438,-1.228,-1.21,2.223,1.627,1.367,0.794,0.514,0.823,-0.912,-4.529,0.711
0.962,-2.441,-2.425,0.017,2.433,-1.228,-1.204,2.222,1.629,1.369,0.799,0.526,0.836,-0.902,-4.522,0.709
0.963,-2.438,-2.419,0.019,2.429,-1.228,-1.2,2.22,1.627,1.369,0.801,0.531,0.845,-0.894,-4.518,0.709
0.964,-2.438,-2.421,0.018,2.429,-1.228,-1.201,2.219,1.627,1.371,0.805,0.539,0.857,-0.887,-4.521,0.711
0.965,-2.433,-2.422,0.011,2.428,-1.222,-1.206,2.215,1.625,1.371,0.806,0.547,0.868,-0.88,-4.524,0.712
0.966,-2.423,-2.419,0.004,2.421,-1.214,-1.208,2.212,1.62,1.369,0.811,0.555,0.878,-0.872,-4.526,0.713
0.967,-2.417,-2.413,0.005,2.415,-1.211,-1.204,2.209,1.622,1.369,0.81,0.562,0.892,-0.862,-4.524,0.714
0.968,-2.416,-2.407,0.009,2.412,-1.212,-1.198,2.208,1.627,1.367,0.812,0.571,0.903,-0.855,-4.519,0.714
0.969,-2.414,-2.401,0.015,2.408,-1.214,-1.192,2.204,1.619,1.362,0.819,0.581,0.913,-0.846,-4.514,0.713
0.97,-2.409,-2.391,0.019,2.4,-1.214,-1.185,2.202,1.615,1.363,0.819,0.588,0.92,-0.842,-4.508,0.714
0.971,-2.409,-2.385,0.024,2.397,-1.216,-1.181,2.204,1.619,1.371,0.82,0.591,0.921,-0.843,-4.502,0.713
0.972,-2.412,-2.384,0.029,2.397,-1.22,-1.177,2.201,1.617,1.365,0.819,0.594,0.921,-0.844,-4.5,0.712
0.973,-2.413,-2.385,0.029,2.4,-1.222,-1.177,2.2,1.618,1.358,0.815,0.594,0.926,-0.841,-4.503,0.714
0.974,-2.412,-2.38,0.032,2.396,-1.222,-1.174,2.199,1.617,1.355,0.811,0.597,0.933,-0.835,-4.498,0.715
0.975,-2.407,-2.373,0.034,2.39,-1.22,-1.169,2.193,1.607,1.351,0.811,0.602,0.939,-0.829,-4.494,0.714
0.976,-2.417,-2.377,0.04,2.397,-1.228,-1.168,2.19,1.604,1.345,0.809,0.606,0.942,-0.827,-4.489,0.712
0.977,-2.414,-2.377,0.038,2.396,-1.226,-1.169,2.19,1.602,1.341,0.802,0.606,0.939,-0.83,-4.489,0.712
0.978,-2.412,-2.381,0.031,2.396,-1.221,-1.175,2.188,1.597,1.332,0.794,0.601,0.938,-0.83,-4.493,0.715
0.979,-2.414,-2.386,0.029,2.401,-1.222,-1.179,2.185,1.593,1.323,0.787,0.599,0.936,-0.832,-4.495,0.718
0.98,-2.414,-2.388,0.027,2.401,-1.22,-1.181,2.183,1.587,1.318,0.782,0.596,0.932,-0.836,-4.497,0.717
0.981,-2.417,-2.394,0.023,2.405,-1.22,-1.185,2.182,1.581,1.307,0.772,0.59,0.926,-0.839,-4.498,0.72
0.982,-2.421,-2.397,0.025,2.409,-1.223,-1.185,2.183,1.577,1.303,0.768,0.587,0.923,-0.842,-4.5,0.72
0.983,-2.433,-2.39,0.043,2.412,-1.238,-1.173,2.193,1.583,1.298,0.765,0.587,0.925,-0.848,-4.493,0.718
0.984,-2.433,-2.39,0.044,2.412,-1.238,-1.173,2.196,1.584,1.291,0.754,0.58,0.917,-0.856,-4.492,0.72
0.985,-2.431,-2.39,0.042,2.41,-1.236,-1.174,2.193,1.573,1.284,0.746,0.57,0.907,-0.863,-4.497,0.72
0.986,-2.433,-2.39,0.043,2.412,-1.238,-1.173,2.197,1.569,1.275,0.734,0.561,0.898,-0.871,-4.498,0.721
0.987,-2.437,-2.393,0.044,2.414,-1.24,-1.173,2.2,1.566,1.264,0.721,0.551,0.886,-0.879,-4.495,0.721
0.988,-2.442,-2.391,0.052,2.417,-1.246,-1.169,2.201,1.565,1.253,0.711,0.54,0.875,-0.889,-4.492,0.72
0.989,-2.452,-2.391,0.061,2.421,-1.256,-1.165,2.206,1.562,1.245,0.699,0.529,0.866,-0.899,-4.491,0.719
0.99,-2.468,-2.395,0.074,2.432,-1.27,-1.161,2.209,1.558,1.236,0.687,0.517,0.854,-0.913,-4.492,0.719
0.991,-2.471,-2.394,0.077,2.433,-1.274,-1.159,2.213,1.558,1.228,0.675,0.505,0.841,-0.927,-4.494,0.718
0.992,-2.469,-2.396,0.074,2.432,-1.271,-1.161,2.219,1.553,1.217,0.66,0.488,0.826,-0.94,-4.496,0.72
0.993,-2.474,-2.404,0.07,2.439,-1.272,-1.167,2.224,1.552,1.203,0.64,0.468,0.811,-0.956,-4.501,0.723
0.994,-2.482,-2.407,0.075,2.445,-1.278,-1.166,2.232,1.552,1.194,0.626,0.453,0.799,-0.97,-4.505,0.722
0.995,-2.495,-2.414,0.081,2.454,-1.288,-1.166,2.237,1.55,1.185,0.614,0.435,0.782,-0.985,-4.51,0.722
0.996,-2.507,-2.427,0.081,2.467,-1.294,-1.173,2.239,1.544,1.171,0.592,0.41,0.758,-1.004,-4.514,0.723
0.997,-2.518,-2.436,0.083,2.478,-1.3,-1.177,2.244,1.539,1.157,0.575,0.39,0.74,-1.018,-4.516,0.723
0.998,-2.523,-2.443,0.08,2.483,-1.301,-1.181,2.249,1.536,1.147,0.556,0.369,0.72,-1.036,-4.522,0.724
0.999,-2.522,-2.451,0.072,2.486,-1.297,-1.189,2.254,1.535,1.129,0.534,0.343,0.696,-1.056,-4.529,0.726
1,-2.529,-2.461,0.069,2.494,-1.298,-1.195,2.262,1.529,1.118,0.518,0.322,0.677,-1.074,-4.534,0.725
1.001,-2.538,-2.467,0.071,2.502,-1.304,-1.198,2.272,1.526,1.113,0.502,0.302,0.658,-1.095,-4.537,0.725
1.002,-2.55,-2.474,0.077,2.512,-1.313,-1.198,2.284,1.532,1.098,0.483,0.279,0.638,-1.116,-4.543,0.729
1.003,-2.568,-2.483,0.086,2.526,-1.327,-1.198,2.295,1.531,1.091,0.469,0.26,0.622,-1.132,-4.551,0.728
1.004,-2.58,-2.496,0.085,2.538,-1.333,-1.205,2.304,1.532,1.086,0.455,0.241,0.606,-1.151,-4.557,0.728
1.005,-2.579,-2.506,0.073,2.542,-1.326,-1.216,2.312,1.531,1.071,0.433,0.214,0.584,-1.173,-4.566,0.732
1.006,-2.58,-2.514,0.066,2.547,-1.323,-1.224,2.318,1.524,1.052,0.41,0.189,0.566,-1.192,-4.576,0.735
1.007,-2.589,-2.52,0.07,2.554,-1.329,-1.224,2.325,1.524,1.04,0.391,0.168,0.547,-1.208,-4.582,0.735
1.008,-2.602,-2.526,0.076,2.563,-1.339,-1.224,2.334,1.526,1.03,0.376,0.148,0.529,-1.225,-4.583,0.735
1.009,-2.622,-2.538,0.084,2.58,-1.353,-1.227,2.343,1.521,1.016,0.357,0.128,0.51,-1.243,-4.586,0.735
1.01,-2.631,-2.548,0.084,2.59,-1.357,-1.232,2.351,1.516,1,0.336,0.102,0.484,-1.266,-4.593,0.737
1.011,-2.635,-2.555,0.081,2.595,-1.357,-1.237,2.358,1.512,0.987,0.318,0.078,0.463,-1.284,-4.599,0.739
1.012,-2.646,-2.566,0.081,2.606,-1.363,-1.242,2.369,1.51,0.979,0.3,0.057,0.442,-1.304,-4.604,0.739
1.013,-2.657,-2.575,0.082,2.616,-1.369,-1.246,2.38,1.512,0.965,0.28,0.033,0.415,-1.333,-4.609,0.741
1.014,-2.672,-2.587,0.086,2.63,-1.379,-1.25,2.386,1.509,0.948,0.258,0.007,0.388,-1.356,-4.619,0.743
1.015,-2.689,-2.6,0.089,2.645,-1.389,-1.256,2.394,1.498,0.935,0.242,-0.015,0.362,-1.375,-4.623,0.742
1.016,-2.699,-2.614,0.086,2.656,-1.392,-1.264,2.396,1.492,0.925,0.228,-0.035,0.336,-1.395,-4.628,0.741
1.017,-2.703,-2.624,0.079,2.663,-1.391,-1.272,2.402,1.493,0.909,0.203,-0.061,0.313,-1.416,-4.634,0.746
1.018,-2.709,-2.634,0.076,2.671,-1.393,-1.278,2.413,1.488,0.892,0.183,-0.085,0.296,-1.433,-4.641,0.75
1.019,-2.725,-2.649,0.076,2.687,-1.401,-1.286,2.419,1.484,0.879,0.165,-0.108,0.279,-1.45,-4.652,0.753
1.02,-2.734,-2.66,0.074,2.696,-1.404,-1.292,2.426,1.48,0.865,0.143,-0.133,0.262,-1.468,-4.66,0.756
1.021,-2.735,-2.67,0.066,2.703,-1.401,-1.302,2.432,1.473,0.854,0.13,-0.157,0.246,-1.484,-4.67,0.758
1.022,-2.744,-2.679,0.065,2.712,-1.405,-1.307,2.439,1.47,0.84,0.112,-0.177,0.23,-1.5,-4.676,0.761
1.023,-2.758,-2.683,0.074,2.72,-1.416,-1.304,2.448,1.468,0.83,0.096,-0.197,0.214,-1.516,-4.678,0.763
1.024,-2.762,-2.69,0.072,2.726,-1.417,-1.308,2.453,1.466,0.817,0.08,-0.219,0.197,-1.532,-4.684,0.766
1.025,-2.762,-2.697,0.065,2.729,-1.413,-1.316,2.46,1.462,0.801,0.061,-0.239,0.175,-1.55,-4.689,0.767
1.026,-2.772,-2.707,0.066,2.739,-1.419,-1.321,2.469,1.46,0.791,0.046,-0.256,0.159,-1.567,-4.697,0.77
1.027,-2.787,-2.717,0.07,2.752,-1.428,-1.323,2.477,1.458,0.782,0.033,-0.272,0.145,-1.583,-4.7,0.772
1.028,-2.796,-2.723,0.073,2.76,-1.435,-1.325,2.482,1.452,0.773,0.018,-0.287,0.129,-1.598,-4.705,0.771
1.029,-2.796,-2.727,0.07,2.761,-1.433,-1.328,2.489,1.452,0.759,0.004,-0.302,0.111,-1.611,-4.712,0.775
1.03,-2.8,-2.732,0.069,2.767,-1.435,-1.331,2.493,1.446,0.748,-0.011,-0.318,0.098,-1.624,-4.716,0.778
1.031,-2.812,-2.74,0.072,2.776,-1.442,-1.333,2.502,1.438,0.737,-0.028,-0.336,0.083,-1.639,-4.718,0.779
1.032,-2.822,-2.748,0.074,2.785,-1.448,-1.337,2.51,1.44,0.726,-0.04,-0.355,0.066,-1.655,-4.721,0.781
1.033,-2.834,-2.758,0.077,2.796,-1.456,-1.34,2.517,1.438,0.715,-0.052,-0.369,0.057,-1.668,-4.73,0.784
1.034,-2.839,-2.763,0.077,2.8,-1.458,-1.343,2.523,1.437,0.706,-0.065,-0.386,0.043,-1.683,-4.737,0.788
1.035,-2.837,-2.768,0.069,2.803,-1.452,-1.349,2.525,1.431,0.697,-0.08,-0.407,0.025,-1.696,-4.74,0.79
1.036,-2.84,-2.779,0.061,2.809,-1.45,-1.359,2.525,1.423,0.681,-0.096,-0.424,0.016,-1.704,-4.745,0.792
1.037,-2.845,-2.787,0.059,2.816,-1.452,-1.365,2.53,1.419,0.669,-0.11,-0.439,0.006,-1.714,-4.751,0.796
1.038,-2.856,-2.797,0.059,2.826,-1.458,-1.369,2.536,1.417,0.66,-0.122,-0.45,-0.002,-1.723,-4.758,0.799
1.039,-2.856,-2.809,0.046,2.833,-1.451,-1.381,2.535,1.412,0.649,-0.134,-0.463,-0.011,-1.73,-4.764,0.802
1.04,-2.855,-2.819,0.036,2.837,-1.446,-1.391,2.54,1.407,0.639,-0.147,-0.477,-0.025,-1.742,-4.771,0.805
1.041,-2.869,-2.831,0.037,2.85,-1.453,-1.397,2.543,1.403,0.628,-0.163,-0.494,-0.039,-1.754,-4.779,0.809
1.042,-2.872,-2.838,0.033,2.856,-1.452,-1.403,2.548,1.395,0.617,-0.175,-0.508,-0.051,-1.766,-4.785,0.812
1.043,-2.882,-2.845,0.037,2.864,-1.46,-1.403,2.554,1.393,0.607,-0.184,-0.518,-0.061,-1.776,-4.787,0.812
1.044,-2.892,-2.852,0.04,2.872,-1.466,-1.406,2.559,1.393,0.599,-0.193,-0.529,-0.07,-1.786,-4.79,0.814
1.045,-2.889,-2.856,0.034,2.873,-1.461,-1.411,2.563,1.389,0.595,-0.202,-0.54,-0.08,-1.794,-4.795,0.818
1.046,-2.892,-2.861,0.03,2.877,-1.461,-1.415,2.563,1.383,0.586,-0.214,-0.552,-0.091,-1.804,-4.798,0.82
1.047,-2.89,-2.862,0.029,2.877,-1.46,-1.417,2.563,1.378,0.575,-0.226,-0.565,-0.101,-1.812,-4.796,0.821
1.048,-2.888,-2.86,0.028,2.874,-1.458,-1.415,2.564,1.377,0.568,-0.233,-0.573,-0.107,-1.817,-4.797,0.822
1.049,-2.889,-2.86,0.029,2.874,-1.458,-1.415,2.572,1.375,0.561,-0.236,-0.578,-0.111,-1.821,-4.801,0.824
1.05,-2.89,-2.861,0.029,2.876,-1.459,-1.417,2.573,1.373,0.555,-0.244,-0.586,-0.117,-1.827,-4.801,0.826
1.051,-2.889,-2.86,0.03,2.874,-1.46,-1.415,2.57,1.368,0.548,-0.251,-0.592,-0.121,-1.831,-4.798,0.825
1.052,-2.896,-2.865,0.032,2.881,-1.464,-1.417,2.574,1.367,0.545,-0.256,-0.599,-0.126,-1.837,-4.8,0.826
1.053,-2.904,-2.869,0.035,2.886,-1.468,-1.417,2.579,1.367,0.54,-0.261,-0.604,-0.131,-1.843,-4.8,0.828
1.054,-2.901,-2.869,0.032,2.885,-1.466,-1.419,2.586,1.365,0.534,-0.267,-0.611,-0.135,-1.853,-4.806,0.83
1.055,-2.906,-2.876,0.031,2.892,-1.468,-1.423,2.588,1.367,0.533,-0.274,-0.618,-0.141,-1.857,-4.814,0.832
1.056,-2.91,-2.877,0.034,2.893,-1.472,-1.421,2.588,1.364,0.529,-0.276,-0.62,-0.145,-1.861,-4.814,0.832
1.057,-2.909,-2.88,0.029,2.894,-1.468,-1.425,2.59,1.359,0.522,-0.281,-0.627,-0.155,-1.869,-4.821,0.834
1.058,-2.908,-2.886,0.021,2.897,-1.464,-1.432,2.591,1.357,0.518,-0.286,-0.633,-0.163,-1.875,-4.825,0.836
1.059,-2.91,-2.894,0.017,2.902,-1.463,-1.438,2.593,1.355,0.512,-0.292,-0.637,-0.168,-1.88,-4.83,0.837
1.06,-2.917,-2.901,0.016,2.909,-1.466,-1.442,2.598,1.353,0.51,-0.296,-0.641,-0.172,-1.887,-4.835,0.839
1.061,-2.92,-2.905,0.015,2.913,-1.467,-1.446,2.602,1.351,0.507,-0.3,-0.646,-0.178,-1.893,-4.838,0.841
1.062,-2.923,-2.911,0.012,2.917,-1.467,-1.45,2.603,1.348,0.502,-0.304,-0.649,-0.184,-1.898,-4.84,0.843
1.063,-2.927,-2.914,0.012,2.921,-1.469,-1.452,2.603,1.347,0.499,-0.306,-0.652,-0.189,-1.901,-4.837,0.842
1.064,-2.929,-2.921,0.007,2.925,-1.468,-1.457,2.604,1.346,0.496,-0.309,-0.655,-0.189,-1.901,-4.838,0.842
1.065,-2.939,-2.925,0.015,2.933,-1.477,-1.456,2.611,1.347,0.496,-0.311,-0.658,-0.185,-1.903,-4.84,0.845
1.066,-2.942,-2.926,0.017,2.934,-1.48,-1.454,2.611,1.348,0.494,-0.315,-0.662,-0.188,-1.905,-4.843,0.847
1.067,-2.934,-2.924,0.011,2.929,-1.472,-1.456,2.607,1.34,0.482,-0.323,-0.671,-0.192,-1.907,-4.842,0.848
1.068,-2.93,-2.921,0.01,2.925,-1.47,-1.455,2.603,1.335,0.479,-0.324,-0.673,-0.191,-1.903,-4.841,0.848
1.069,-2.926,-2.917,0.01,2.921,-1.468,-1.454,2.603,1.335,0.478,-0.326,-0.674,-0.193,-1.902,-4.839,0.848
1.07,-2.932,-2.917,0.015,2.925,-1.473,-1.451,2.607,1.335,0.475,-0.333,-0.68,-0.193,-1.907,-4.84,0.85
1.071,-2.941,-2.925,0.016,2.933,-1.478,-1.454,2.606,1.333,0.473,-0.334,-0.681,-0.188,-1.904,-4.843,0.852
1.072,-2.945,-2.929,0.015,2.937,-1.48,-1.457,2.605,1.333,0.469,-0.334,-0.679,-0.184,-1.903,-4.842,0.853
1.073,-2.946,-2.932,0.014,2.939,-1.48,-1.459,2.608,1.335,0.468,-0.334,-0.681,-0.188,-1.905,-4.844,0.854
1.074,-2.945,-2.933,0.011,2.939,-1.478,-1.462,2.608,1.329,0.463,-0.339,-0.685,-0.197,-1.909,-4.845,0.855
1.075,-2.948,-2.936,0.013,2.942,-1.48,-1.462,2.608,1.328,0.466,-0.335,-0.683,-0.198,-1.912,-4.846,0.853
1.076,-2.945,-2.937,0.009,2.941,-1.476,-1.464,2.61,1.332,0.462,-0.344,-0.692,-0.2,-1.915,-4.848,0.855
1.077,-2.938,-2.936,0.003,2.937,-1.47,-1.466,2.611,1.328,0.458,-0.348,-0.697,-0.2,-1.915,-4.853,0.859
1.078,-2.939,-2.938,0.003,2.938,-1.471,-1.468,2.609,1.327,0.46,-0.342,-0.693,-0.195,-1.912,-4.854,0.859
1.079,-2.943,-2.943,-0.001,2.943,-1.47,-1.472,2.61,1.327,0.456,-0.347,-0.694,-0.198,-1.914,-4.856,0.86
1.08,-2.944,-2.946,-0.003,2.946,-1.47,-1.474,2.61,1.325,0.46,-0.346,-0.692,-0.199,-1.915,-4.861,0.86
1.081,-2.945,-2.942,0.002,2.944,-1.472,-1.47,2.613,1.329,0.46,-0.345,-0.692,-0.199,-1.917,-4.862,0.861
1.082,-2.942,-2.938,0.004,2.941,-1.472,-1.468,2.615,1.327,0.455,-0.345,-0.692,-0.201,-1.919,-4.859,0.862
1.083,-2.942,-2.94,0.002,2.941,-1.471,-1.47,2.611,1.328,0.456,-0.346,-0.694,-0.202,-1.919,-4.858,0.86
1.084,-2.942,-2.949,-0.006,2.946,-1.468,-1.478,2.609,1.324,0.454,-0.349,-0.696,-0.204,-1.917,-4.861,0.861
1.085,-2.939,-2.949,-0.009,2.945,-1.465,-1.479,2.606,1.321,0.45,-0.355,-0.702,-0.21,-1.92,-4.859,0.863
1.086,-2.935,-2.946,-0.011,2.941,-1.462,-1.479,2.607,1.325,0.451,-0.355,-0.702,-0.21,-1.921,-4.86,0.863
1.087,-2.926,-2.939,-0.013,2.933,-1.456,-1.476,2.611,1.321,0.455,-0.351,-0.698,-0.207,-1.921,-4.858,0.861
1.088,-2.926,-2.936,-0.009,2.932,-1.458,-1.472,2.611,1.319,0.45,-0.35,-0.7,-0.208,-1.923,-4.853,0.861
1.089,-2.934,-2.939,-0.005,2.937,-1.464,-1.472,2.61,1.319,0.446,-0.353,-0.701,-0.21,-1.922,-4.855,0.861
1.09,-2.943,-2.937,0.006,2.941,-1.474,-1.465,2.615,1.327,0.453,-0.348,-0.696,-0.207,-1.923,-4.855,0.861
1.091,-2.944,-2.931,0.013,2.938,-1.478,-1.459,2.619,1.333,0.456,-0.344,-0.694,-0.204,-1.923,-4.854,0.86
1.092,-2.943,-2.932,0.012,2.938,-1.478,-1.46,2.622,1.331,0.454,-0.347,-0.695,-0.206,-1.923,-4.855,0.86
1.093,-2.951,-2.942,0.009,2.947,-1.48,-1.467,2.618,1.327,0.453,-0.348,-0.698,-0.208,-1.925,-4.859,0.861
1.094,-2.956,-2.948,0.009,2.952,-1.482,-1.47,2.616,1.323,0.448,-0.352,-0.703,-0.211,-1.927,-4.859,0.862
1.095,-2.957,-2.951,0.006,2.954,-1.481,-1.472,2.615,1.321,0.444,-0.358,-0.708,-0.215,-1.927,-4.856,0.863
1.096,-2.955,-2.95,0.005,2.953,-1.48,-1.473,2.61,1.321,0.444,-0.356,-0.706,-0.213,-1.925,-4.853,0.861
1.097,-2.958,-2.948,0.009,2.953,-1.484,-1.47,2.612,1.323,0.449,-0.352,-0.705,-0.211,-1.926,-4.856,0.861
1.098,-2.958,-2.951,0.007,2.955,-1.482,-1.472,2.611,1.321,0.447,-0.355,-0.708,-0.209,-1.926,-4.86,0.863
1.099,-2.959,-2.955,0.004,2.958,-1.482,-1.476,2.615,1.319,0.442,-0.355,-0.711,-0.209,-1.927,-4.862,0.865
1.1,-2.949,-2.958,-0.009,2.954,-1.47,-1.483,2.615,1.318,0.443,-0.358,-0.711,-0.211,-1.927,-4.865,0.865
1.101,-2.942,-2.957,-0.015,2.95,-1.464,-1.486,2.61,1.321,0.451,-0.354,-0.708,-0.21,-1.925,-4.863,0.864
1.102,-2.955,-2.965,-0.009,2.961,-1.473,-1.487,2.608,1.322,0.448,-0.358,-0.711,-0.212,-1.927,-4.861,0.865
1.103,-2.957,-2.967,-0.011,2.962,-1.473,-1.489,2.606,1.315,0.441,-0.363,-0.715,-0.216,-1.928,-4.865,0.866
1.104,-2.958,-2.966,-0.009,2.962,-1.474,-1.488,2.608,1.317,0.443,-0.356,-0.713,-0.215,-1.929,-4.867,0.865
1.105,-2.956,-2.966,-0.009,2.961,-1.473,-1.488,2.612,1.322,0.439,-0.359,-0.714,-0.22,-1.932,-4.864,0.865
1.106,-2.952,-2.958,-0.006,2.955,-1.472,-1.482,2.614,1.321,0.443,-0.358,-0.714,-0.225,-1.937,-4.865,0.864
1.107,-2.957,-2.957,0,2.957,-1.478,-1.478,2.612,1.321,0.45,-0.354,-0.714,-0.231,-1.94,-4.859,0.862
1.108,-2.957,-2.955,0.001,2.956,-1.478,-1.478,2.61,1.322,0.448,-0.356,-0.714,-0.237,-1.942,-4.857,0.86
1.109,-2.951,-2.947,0.004,2.95,-1.477,-1.472,2.611,1.323,0.448,-0.355,-0.714,-0.24,-1.944,-4.856,0.859
1.11,-2.953,-2.942,0.011,2.947,-1.482,-1.465,2.615,1.325,0.453,-0.352,-0.711,-0.238,-1.943,-4.851,0.859
1.111,-2.954,-2.945,0.009,2.95,-1.482,-1.468,2.613,1.327,0.455,-0.35,-0.709,-0.232,-1.94,-4.853,0.859
1.112,-2.956,-2.953,0.003,2.955,-1.48,-1.475,2.612,1.325,0.452,-0.351,-0.712,-0.228,-1.936,-4.855,0.861
1.113,-2.956,-2.953,0.004,2.954,-1.48,-1.474,2.611,1.324,0.45,-0.353,-0.714,-0.222,-1.933,-4.854,0.863
1.114,-2.951,-2.947,0.004,2.95,-1.478,-1.472,2.61,1.323,0.449,-0.354,-0.717,-0.218,-1.931,-4.853,0.863
1.115,-2.953,-2.945,0.008,2.949,-1.48,-1.468,2.612,1.322,0.45,-0.353,-0.719,-0.214,-1.929,-4.853,0.864
1.116,-2.961,-2.943,0.018,2.953,-1.489,-1.463,2.614,1.327,0.453,-0.35,-0.719,-0.21,-1.929,-4.852,0.863
1.117,-2.963,-2.946,0.018,2.955,-1.49,-1.464,2.615,1.328,0.453,-0.348,-0.72,-0.208,-1.931,-4.854,0.865
1.118,-2.956,-2.946,0.011,2.951,-1.483,-1.468,2.615,1.327,0.453,-0.349,-0.723,-0.209,-1.932,-4.856,0.866
1.119,-2.954,-2.947,0.006,2.95,-1.48,-1.47,2.616,1.327,0.45,-0.352,-0.725,-0.211,-1.935,-4.861,0.866
1.12,-2.953,-2.95,0.002,2.951,-1.477,-1.474,2.614,1.323,0.455,-0.35,-0.724,-0.213,-1.932,-4.86,0.867
1.121,-2.95,-2.951,-0.001,2.95,-1.474,-1.476,2.612,1.327,0.457,-0.348,-0.721,-0.214,-1.931,-4.862,0.866
1.122,-2.951,-2.949,0.003,2.95,-1.476,-1.473,2.614,1.326,0.453,-0.349,-0.717,-0.216,-1.933,-4.862,0.865
1.123,-2.954,-2.946,0.008,2.95,-1.48,-1.469,2.614,1.329,0.453,-0.351,-0.717,-0.218,-1.934,-4.857,0.864
1.124,-2.957,-2.951,0.006,2.954,-1.482,-1.472,2.614,1.331,0.454,-0.352,-0.714,-0.218,-1.934,-4.857,0.862
1.125,-2.951,-2.953,-0.002,2.953,-1.474,-1.477,2.61,1.325,0.455,-0.352,-0.715,-0.22,-1.933,-4.856,0.863
1.126,-2.946,-2.951,-0.005,2.949,-1.47,-1.478,2.61,1.323,0.452,-0.355,-0.72,-0.22,-1.934,-4.857,0.864
1.127,-2.947,-2.949,-0.001,2.948,-1.473,-1.475,2.611,1.323,0.453,-0.352,-0.72,-0.219,-1.935,-4.854,0.862
1.128,-2.947,-2.944,0.003,2.946,-1.475,-1.471,2.61,1.323,0.451,-0.352,-0.72,-0.219,-1.933,-4.849,0.862
1.129,-2.947,-2.94,0.007,2.944,-1.477,-1.466,2.608,1.324,0.45,-0.353,-0.72,-0.218,-1.93,-4.848,0.861
1.13,-2.943,-2.933,0.011,2.938,-1.477,-1.461,2.607,1.321,0.453,-0.351,-0.719,-0.217,-1.929,-4.844,0.859
1.131,-2.939,-2.927,0.013,2.933,-1.476,-1.457,2.607,1.322,0.452,-0.352,-0.72,-0.213,-1.926,-4.843,0.861
1.132,-2.941,-2.93,0.011,2.936,-1.475,-1.46,2.607,1.324,0.452,-0.35,-0.72,-0.213,-1.925,-4.844,0.862
1.133,-2.938,-2.933,0.005,2.936,-1.472,-1.464,2.607,1.325,0.451,-0.35,-0.717,-0.213,-1.926,-4.845,0.862
1.134,-2.935,-2.929,0.006,2.932,-1.471,-1.461,2.604,1.324,0.452,-0.351,-0.719,-0.222,-1.931,-4.84,0.861
1.135,-2.941,-2.932,0.009,2.937,-1.475,-1.461,2.607,1.325,0.452,-0.353,-0.727,-0.235,-1.942,-4.843,0.86
1.136,-2.939,-2.934,0.006,2.937,-1.472,-1.464,2.607,1.326,0.453,-0.351,-0.721,-0.232,-1.94,-4.843,0.859
1.137,-2.934,-2.934,-0.001,2.934,-1.466,-1.468,2.603,1.323,0.452,-0.351,-0.721,-0.236,-1.94,-4.842,0.859
1.138,-2.933,-2.938,-0.004,2.936,-1.465,-1.47,2.603,1.322,0.45,-0.354,-0.728,-0.239,-1.942,-4.845,0.859
1.139,-2.942,-2.941,0,2.942,-1.47,-1.47,2.604,1.323,0.45,-0.352,-0.725,-0.231,-1.938,-4.847,0.86
1.14,-2.946,-2.946,-0.001,2.946,-1.472,-1.474,2.607,1.321,0.452,-0.352,-0.726,-0.229,-1.938,-4.851,0.861
1.141,-2.941,-2.947,-0.006,2.944,-1.466,-1.477,2.607,1.324,0.455,-0.352,-0.728,-0.229,-1.936,-4.854,0.862
1.142,-2.94,-2.945,-0.005,2.943,-1.468,-1.475,2.603,1.327,0.455,-0.351,-0.73,-0.228,-1.936,-4.853,0.863
1.143,-2.941,-2.943,-0.002,2.942,-1.469,-1.472,2.602,1.322,0.451,-0.354,-0.735,-0.227,-1.935,-4.854,0.865
1.144,-2.943,-2.942,0.001,2.943,-1.472,-1.471,2.601,1.322,0.449,-0.353,-0.734,-0.222,-1.933,-4.855,0.864
1.145,-2.946,-2.942,0.004,2.943,-1.474,-1.469,2.602,1.323,0.454,-0.352,-0.732,-0.216,-1.931,-4.853,0.864
1.146,-2.944,-2.942,0.002,2.943,-1.472,-1.47,2.602,1.325,0.449,-0.356,-0.734,-0.219,-1.931,-4.846,0.866
1.147,-2.946,-2.939,0.007,2.943,-1.476,-1.466,2.6,1.323,0.449,-0.355,-0.731,-0.217,-1.929,-4.84,0.863
1.148,-2.947,-2.938,0.01,2.943,-1.478,-1.464,2.602,1.323,0.454,-0.354,-0.73,-0.218,-1.928,-4.841,0.864
1.149,-2.942,-2.933,0.009,2.937,-1.475,-1.462,2.601,1.325,0.452,-0.352,-0.731,-0.22,-1.929,-4.84,0.863
1.15,-2.941,-2.927,0.013,2.934,-1.477,-1.456,2.603,1.329,0.453,-0.348,-0.728,-0.218,-1.932,-4.84,0.861
1.151,-2.938,-2.925,0.013,2.931,-1.476,-1.456,2.604,1.331,0.454,-0.347,-0.727,-0.216,-1.93,-4.841,0.86
1.152,-2.937,-2.921,0.015,2.929,-1.476,-1.453,2.604,1.326,0.455,-0.346,-0.725,-0.21,-1.925,-4.841,0.862
1.153,-2.946,-2.926,0.02,2.937,-1.483,-1.453,2.61,1.335,0.453,-0.351,-0.724,-0.206,-1.926,-4.843,0.866
1.154,-2.943,-2.924,0.02,2.934,-1.482,-1.452,2.607,1.335,0.455,-0.349,-0.722,-0.208,-1.926,-4.84,0.862
1.155,-2.936,-2.924,0.011,2.93,-1.473,-1.456,2.602,1.325,0.458,-0.344,-0.724,-0.212,-1.926,-4.838,0.86
1.156,-2.938,-2.93,0.009,2.934,-1.474,-1.46,2.603,1.327,0.454,-0.345,-0.723,-0.211,-1.927,-4.841,0.861
1.157,-2.941,-2.931,0.009,2.936,-1.475,-1.46,2.6,1.325,0.453,-0.347,-0.724,-0.213,-1.925,-4.841,0.861
1.158,-2.942,-2.93,0.011,2.937,-1.476,-1.46,2.599,1.322,0.45,-0.354,-0.73,-0.218,-1.929,-4.84,0.862
1.159,-2.943,-2.935,0.009,2.939,-1.476,-1.463,2.599,1.322,0.445,-0.355,-0.728,-0.221,-1.932,-4.84,0.861
1.16,-2.94,-2.937,0.004,2.938,-1.472,-1.467,2.6,1.326,0.452,-0.35,-0.726,-0.22,-1.931,-4.841,0.861
1.161,-2.938,-2.936,0.003,2.937,-1.47,-1.466,2.6,1.327,0.453,-0.353,-0.733,-0.228,-1.938,-4.843,0.862
1.162,-2.936,-2.936,-0.001,2.936,-1.467,-1.468,2.599,1.327,0.453,-0.353,-0.733,-0.232,-1.938,-4.845,0.863
1.163,-2.933,-2.936,-0.003,2.934,-1.464,-1.47,2.601,1.325,0.451,-0.354,-0.732,-0.233,-1.938,-4.843,0.862
