'Elapsed time','i','ii','iii','avr','avl','avf','v1','v2','v3','v4','v5','v6','vx','vy','vz'
'hh:mm:ss.mmm','mV','mV','mV','mV','mV','mV','mV','mV','mV','mV','mV','mV','mV','mV','mV'
0,0.202,-3.209,-3.412,1.504,1.806,-3.311,0.157,1.512,1,-0.387,-0.043,0.046,0.572,-3.103,0.53
0.001,0.206,-3.203,-3.409,1.498,1.808,-3.306,0.146,1.509,0.994,-0.393,-0.044,0.043,0.576,-3.111,0.53
0.002,0.203,-3.212,-3.414,1.504,1.808,-3.313,0.142,1.511,0.999,-0.39,-0.044,0.04,0.578,-3.119,0.532
0.003,0.207,-3.198,-3.406,1.496,1.806,-3.302,0.141,1.51,1.004,-0.378,-0.032,0.053,0.586,-3.104,0.524
0.004,0.201,-3.197,-3.397,1.498,1.799,-3.297,0.148,1.516,1.012,-0.37,-0.024,0.058,0.592,-3.103,0.518
0.005,0.192,-3.208,-3.4,1.508,1.796,-3.304,0.141,1.513,1.006,-0.376,-0.028,0.056,0.596,-3.112,0.528
0.006,0.208,-3.194,-3.402,1.493,1.805,-3.298,0.138,1.515,1.011,-0.37,-0.018,0.064,0.602,-3.108,0.522
0.007,0.196,-3.201,-3.397,1.503,1.796,-3.3,0.13,1.511,1.012,-0.364,-0.015,0.068,0.606,-3.107,0.52
0.008,0.184,-3.206,-3.39,1.51,1.788,-3.298,0.127,1.512,1.01,-0.363,-0.014,0.07,0.606,-3.092,0.523
0.009,0.208,-3.175,-3.384,1.483,1.796,-3.28,0.147,1.53,1.028,-0.348,-0.001,0.083,0.609,-3.082,0.513
0.01,0.216,-3.167,-3.384,1.476,1.8,-3.276,0.144,1.524,1.03,-0.343,0.005,0.087,0.616,-3.088,0.511
0.011,0.214,-3.176,-3.39,1.48,1.802,-3.284,0.134,1.522,1.028,-0.343,0.007,0.087,0.621,-3.098,0.512
0.012,0.217,-3.172,-3.389,1.478,1.803,-3.281,0.131,1.523,1.032,-0.335,0.015,0.096,0.63,-3.095,0.508
0.013,0.221,-3.165,-3.386,1.472,1.804,-3.276,0.129,1.519,1.036,-0.334,0.018,0.1,0.633,-3.088,0.505
0.014,0.225,-3.163,-3.387,1.469,1.806,-3.275,0.132,1.526,1.04,-0.332,0.019,0.101,0.633,-3.085,0.507
0.015,0.233,-3.149,-3.381,1.458,1.807,-3.265,0.127,1.526,1.041,-0.322,0.031,0.114,0.646,-3.073,0.505
0.016,0.237,-3.148,-3.385,1.456,1.811,-3.267,0.123,1.526,1.044,-0.321,0.031,0.111,0.647,-3.076,0.508
0.017,0.243,-3.15,-3.393,1.453,1.819,-3.272,0.123,1.526,1.048,-0.317,0.036,0.114,0.652,-3.074,0.508
0.018,0.238,-3.147,-3.386,1.454,1.812,-3.267,0.121,1.53,1.052,-0.31,0.046,0.124,0.661,-3.068,0.504
0.019,0.234,-3.149,-3.383,1.457,1.809,-3.266,0.123,1.535,1.054,-0.311,0.042,0.122,0.661,-3.075,0.504
0.02,0.241,-3.142,-3.384,1.45,1.812,-3.263,0.119,1.532,1.053,-0.31,0.045,0.124,0.664,-3.076,0.501
0.021,0.242,-3.139,-3.381,1.448,1.812,-3.26,0.115,1.53,1.056,-0.307,0.051,0.13,0.668,-3.075,0.499
0.022,0.249,-3.13,-3.38,1.44,1.815,-3.255,0.114,1.532,1.06,-0.298,0.061,0.138,0.676,-3.066,0.494
0.023,0.247,-3.132,-3.38,1.442,1.813,-3.256,0.111,1.53,1.057,-0.302,0.06,0.137,0.681,-3.066,0.498
0.024,0.254,-3.134,-3.387,1.44,1.821,-3.26,0.107,1.527,1.056,-0.301,0.061,0.139,0.684,-3.067,0.5
0.025,0.259,-3.13,-3.389,1.435,1.824,-3.26,0.105,1.526,1.059,-0.295,0.064,0.141,0.683,-3.061,0.493
0.026,0.26,-3.128,-3.388,1.435,1.823,-3.259,0.103,1.531,1.063,-0.293,0.068,0.145,0.684,-3.064,0.492
0.027,0.261,-3.126,-3.386,1.433,1.823,-3.256,0.106,1.531,1.065,-0.285,0.074,0.151,0.689,-3.057,0.492
0.028,0.249,-3.126,-3.376,1.438,1.812,-3.251,0.107,1.524,1.065,-0.285,0.073,0.151,0.688,-3.054,0.489
0.029,0.248,-3.129,-3.377,1.44,1.813,-3.253,0.1,1.52,1.06,-0.29,0.07,0.15,0.686,-3.064,0.493
0.03,0.257,-3.127,-3.384,1.435,1.821,-3.255,0.098,1.518,1.058,-0.289,0.072,0.153,0.693,-3.062,0.494
0.031,0.262,-3.112,-3.374,1.425,1.817,-3.243,0.1,1.526,1.069,-0.277,0.084,0.164,0.7,-3.055,0.483
0.032,0.277,-3.1,-3.377,1.411,1.827,-3.239,0.1,1.535,1.077,-0.268,0.092,0.173,0.707,-3.053,0.478
0.033,0.283,-3.101,-3.384,1.409,1.833,-3.243,0.099,1.537,1.083,-0.262,0.096,0.176,0.713,-3.046,0.482
0.034,0.27,-3.106,-3.376,1.419,1.823,-3.24,0.092,1.528,1.079,-0.266,0.095,0.173,0.712,-3.044,0.483
0.035,0.269,-3.11,-3.378,1.421,1.823,-3.244,0.096,1.526,1.075,-0.267,0.092,0.173,0.713,-3.052,0.485
0.036,0.268,-3.111,-3.379,1.422,1.823,-3.245,0.098,1.532,1.077,-0.266,0.096,0.174,0.714,-3.051,0.483
0.037,0.273,-3.106,-3.378,1.417,1.826,-3.242,0.092,1.532,1.08,-0.264,0.101,0.18,0.718,-3.05,0.48
0.038,0.275,-3.108,-3.384,1.417,1.829,-3.246,0.084,1.524,1.076,-0.263,0.101,0.181,0.721,-3.046,0.487
0.039,0.264,-3.115,-3.378,1.425,1.821,-3.246,0.08,1.522,1.077,-0.261,0.104,0.182,0.727,-3.045,0.485
0.04,0.271,-3.1,-3.371,1.415,1.821,-3.236,0.088,1.529,1.083,-0.254,0.112,0.193,0.73,-3.038,0.475
0.041,0.277,-3.095,-3.372,1.409,1.825,-3.233,0.087,1.524,1.078,-0.255,0.113,0.194,0.728,-3.035,0.478
0.042,0.274,-3.099,-3.373,1.413,1.823,-3.236,0.081,1.524,1.079,-0.255,0.114,0.197,0.736,-3.037,0.48
0.043,0.281,-3.087,-3.368,1.403,1.825,-3.228,0.085,1.527,1.079,-0.252,0.117,0.201,0.74,-3.024,0.483
0.044,0.287,-3.083,-3.369,1.398,1.828,-3.226,0.086,1.528,1.084,-0.248,0.122,0.204,0.742,-3.03,0.481
0.045,0.286,-3.084,-3.37,1.399,1.829,-3.228,0.077,1.52,1.083,-0.251,0.119,0.203,0.741,-3.038,0.478
0.046,0.288,-3.084,-3.373,1.398,1.831,-3.228,0.076,1.522,1.079,-0.252,0.12,0.203,0.743,-3.033,0.486
0.047,0.287,-3.087,-3.375,1.4,1.831,-3.231,0.075,1.524,1.081,-0.251,0.12,0.206,0.746,-3.035,0.488
0.048,0.291,-3.081,-3.372,1.395,1.832,-3.227,0.075,1.52,1.085,-0.244,0.127,0.212,0.751,-3.034,0.474
0.049,0.293,-3.074,-3.368,1.39,1.831,-3.22,0.08,1.534,1.091,-0.242,0.131,0.217,0.751,-3.025,0.47
0.05,0.29,-3.071,-3.362,1.39,1.827,-3.216,0.075,1.528,1.083,-0.249,0.129,0.215,0.752,-3.022,0.479
0.051,0.292,-3.066,-3.357,1.387,1.825,-3.212,0.074,1.524,1.083,-0.244,0.132,0.218,0.753,-3.014,0.48
0.052,0.297,-3.062,-3.359,1.383,1.828,-3.211,0.07,1.518,1.083,-0.243,0.132,0.22,0.754,-3.01,0.482
0.053,0.304,-3.061,-3.365,1.379,1.835,-3.213,0.066,1.514,1.079,-0.246,0.131,0.222,0.765,-3.017,0.488
0.054,0.306,-3.055,-3.361,1.375,1.833,-3.208,0.063,1.514,1.076,-0.249,0.13,0.224,0.766,-3.013,0.49
0.055,0.304,-3.05,-3.353,1.373,1.829,-3.201,0.063,1.512,1.076,-0.248,0.132,0.226,0.765,-3.007,0.484
0.056,0.308,-3.049,-3.357,1.371,1.833,-3.203,0.06,1.511,1.077,-0.249,0.133,0.228,0.768,-3.005,0.482
0.057,0.315,-3.043,-3.358,1.364,1.837,-3.201,0.057,1.508,1.076,-0.25,0.133,0.23,0.769,-3.001,0.477
0.058,0.306,-3.049,-3.355,1.371,1.831,-3.202,0.06,1.508,1.075,-0.257,0.123,0.223,0.761,-3.009,0.477
0.059,0.303,-3.057,-3.361,1.377,1.832,-3.209,0.053,1.5,1.067,-0.262,0.12,0.222,0.762,-3.015,0.488
0.06,0.305,-3.051,-3.356,1.373,1.831,-3.204,0.053,1.499,1.067,-0.258,0.128,0.233,0.772,-3.008,0.491
0.061,0.3,-3.051,-3.352,1.375,1.827,-3.201,0.056,1.498,1.06,-0.271,0.115,0.221,0.762,-3.004,0.495
0.062,0.306,-3.046,-3.352,1.369,1.829,-3.199,0.049,1.49,1.053,-0.273,0.116,0.224,0.763,-2.998,0.498
0.063,0.308,-3.042,-3.349,1.367,1.829,-3.196,0.052,1.496,1.058,-0.266,0.123,0.235,0.769,-2.996,0.498
0.064,0.311,-3.043,-3.354,1.365,1.833,-3.199,0.057,1.5,1.054,-0.274,0.115,0.228,0.764,-2.999,0.501
0.065,0.307,-3.045,-3.352,1.369,1.829,-3.198,0.051,1.488,1.046,-0.279,0.113,0.227,0.76,-2.994,0.505
0.066,0.309,-3.049,-3.358,1.37,1.833,-3.204,0.042,1.482,1.039,-0.286,0.107,0.225,0.76,-2.997,0.516
0.067,0.316,-3.05,-3.365,1.367,1.841,-3.208,0.045,1.482,1.038,-0.289,0.106,0.226,0.764,-3.004,0.52
0.068,0.317,-3.05,-3.367,1.367,1.841,-3.209,0.051,1.482,1.04,-0.289,0.105,0.229,0.764,-3.002,0.516
0.069,0.317,-3.051,-3.368,1.367,1.842,-3.209,0.049,1.492,1.04,-0.297,0.097,0.226,0.761,-3.002,0.516
0.07,0.309,-3.055,-3.365,1.373,1.837,-3.21,0.045,1.478,1.029,-0.301,0.097,0.226,0.759,-3.006,0.521
0.071,0.308,-3.059,-3.368,1.375,1.837,-3.213,0.04,1.458,1.016,-0.309,0.093,0.225,0.758,-3.018,0.528
0.072,0.308,-3.061,-3.369,1.377,1.839,-3.215,0.046,1.471,1.018,-0.314,0.086,0.221,0.754,-3.026,0.528
0.073,0.302,-3.067,-3.369,1.383,1.835,-3.217,0.05,1.473,1.014,-0.322,0.075,0.212,0.746,-3.027,0.532
0.074,0.299,-3.067,-3.366,1.384,1.833,-3.217,0.045,1.463,1.004,-0.331,0.067,0.207,0.74,-3.018,0.539
0.075,0.301,-3.06,-3.361,1.379,1.831,-3.211,0.042,1.462,1.001,-0.334,0.066,0.209,0.741,-3.01,0.54
0.076,0.293,-3.071,-3.364,1.389,1.829,-3.217,0.04,1.454,0.992,-0.343,0.057,0.203,0.738,-3.019,0.543
0.077,0.289,-3.075,-3.364,1.393,1.827,-3.219,0.043,1.452,0.987,-0.35,0.05,0.2,0.731,-3.021,0.541
0.078,0.288,-3.071,-3.358,1.391,1.823,-3.215,0.045,1.451,0.981,-0.357,0.044,0.199,0.73,-3.014,0.55
0.079,0.295,-3.071,-3.366,1.388,1.831,-3.219,0.04,1.438,0.971,-0.368,0.035,0.193,0.725,-3.011,0.567
0.08,0.298,-3.076,-3.374,1.389,1.836,-3.225,0.043,1.439,0.968,-0.377,0.026,0.183,0.716,-3.014,0.572
0.081,0.287,-3.083,-3.37,1.398,1.829,-3.227,0.043,1.437,0.96,-0.386,0.016,0.175,0.712,-3.018,0.578
0.082,0.286,-3.081,-3.367,1.397,1.827,-3.224,0.042,1.431,0.954,-0.393,0.011,0.173,0.708,-3.018,0.577
0.083,0.28,-3.087,-3.367,1.403,1.823,-3.227,0.045,1.435,0.95,-0.403,0.001,0.163,0.698,-3.019,0.573
0.084,0.277,-3.094,-3.37,1.409,1.823,-3.232,0.044,1.425,0.939,-0.413,-0.008,0.158,0.689,-3.026,0.574
0.085,0.278,-3.094,-3.371,1.409,1.824,-3.232,0.049,1.429,0.936,-0.42,-0.015,0.153,0.682,-3.027,0.576
0.086,0.276,-3.099,-3.374,1.411,1.825,-3.236,0.052,1.432,0.934,-0.427,-0.026,0.145,0.673,-3.027,0.587
0.087,0.272,-3.104,-3.377,1.417,1.825,-3.24,0.049,1.416,0.923,-0.432,-0.029,0.144,0.67,-3.03,0.598
0.088,0.264,-3.105,-3.369,1.421,1.817,-3.237,0.051,1.415,0.916,-0.442,-0.038,0.138,0.664,-3.036,0.596
0.089,0.257,-3.108,-3.365,1.425,1.811,-3.236,0.054,1.415,0.908,-0.452,-0.05,0.128,0.655,-3.035,0.597
0.09,0.254,-3.112,-3.365,1.429,1.809,-3.239,0.052,1.403,0.896,-0.462,-0.059,0.119,0.646,-3.025,0.601
0.091,0.254,-3.119,-3.373,1.433,1.813,-3.245,0.051,1.401,0.892,-0.471,-0.07,0.11,0.636,-3.038,0.603
0.092,0.246,-3.127,-3.374,1.44,1.81,-3.251,0.058,1.403,0.886,-0.479,-0.079,0.102,0.63,-3.048,0.608
0.093,0.239,-3.135,-3.373,1.448,1.806,-3.254,0.067,1.406,0.885,-0.484,-0.086,0.096,0.622,-3.049,0.608
0.094,0.24,-3.131,-3.371,1.446,1.806,-3.252,0.061,1.402,0.879,-0.492,-0.094,0.091,0.615,-3.049,0.614
0.095,0.234,-3.132,-3.367,1.449,1.8,-3.25,0.063,1.398,0.872,-0.501,-0.103,0.084,0.605,-3.054,0.618
0.096,0.228,-3.144,-3.372,1.458,1.8,-3.257,0.075,1.403,0.871,-0.508,-0.112,0.072,0.593,-3.062,0.617
0.097,0.224,-3.146,-3.369,1.461,1.796,-3.257,0.07,1.393,0.862,-0.517,-0.119,0.067,0.588,-3.061,0.616
0.098,0.214,-3.155,-3.369,1.47,1.792,-3.263,0.071,1.395,0.86,-0.524,-0.129,0.061,0.584,-3.064,0.62
0.099,0.204,-3.167,-3.37,1.481,1.787,-3.268,0.077,1.394,0.851,-0.536,-0.142,0.049,0.571,-3.071,0.628
0.1,0.205,-3.168,-3.373,1.481,1.79,-3.271,0.074,1.379,0.838,-0.546,-0.149,0.043,0.566,-3.075,0.63
0.101,0.207,-3.167,-3.374,1.48,1.79,-3.271,0.075,1.382,0.839,-0.55,-0.153,0.04,0.565,-3.075,0.632
0.102,0.201,-3.171,-3.372,1.486,1.786,-3.272,0.08,1.387,0.837,-0.555,-0.162,0.029,0.554,-3.074,0.635
0.103,0.202,-3.179,-3.38,1.488,1.79,-3.279,0.08,1.383,0.831,-0.564,-0.17,0.024,0.55,-3.08,0.633
0.104,0.194,-3.185,-3.379,1.496,1.786,-3.282,0.08,1.381,0.827,-0.57,-0.176,0.019,0.544,-3.095,0.631
0.105,0.181,-3.192,-3.373,1.506,1.777,-3.283,0.081,1.378,0.824,-0.573,-0.179,0.015,0.538,-3.089,0.642
0.106,0.183,-3.191,-3.375,1.504,1.779,-3.283,0.088,1.38,0.824,-0.576,-0.184,0.012,0.531,-3.084,0.642
0.107,0.186,-3.193,-3.38,1.504,1.783,-3.287,0.085,1.381,0.822,-0.581,-0.192,0.004,0.523,-3.092,0.643
0.108,0.164,-3.219,-3.383,1.528,1.774,-3.301,0.071,1.36,0.803,-0.6,-0.207,-0.009,0.513,-3.095,0.654
0.109,0.174,-3.211,-3.385,1.518,1.78,-3.298,0.087,1.369,0.805,-0.596,-0.205,-0.005,0.511,-3.102,0.646
0.11,0.199,-3.188,-3.388,1.495,1.794,-3.288,0.108,1.395,0.822,-0.585,-0.198,0.001,0.509,-3.112,0.64
0.111,0.18,-3.208,-3.388,1.514,1.784,-3.297,0.111,1.383,0.81,-0.598,-0.213,-0.017,0.492,-3.105,0.646
0.112,0.166,-3.219,-3.385,1.527,1.775,-3.302,0.11,1.383,0.805,-0.604,-0.221,-0.022,0.487,-3.101,0.654
0.113,0.161,-3.225,-3.386,1.532,1.774,-3.305,0.107,1.383,0.808,-0.607,-0.226,-0.028,0.481,-3.111,0.654
0.114,0.16,-3.228,-3.388,1.534,1.774,-3.308,0.112,1.373,0.802,-0.609,-0.228,-0.034,0.476,-3.114,0.651
0.115,0.162,-3.225,-3.388,1.532,1.775,-3.307,0.11,1.379,0.799,-0.616,-0.235,-0.038,0.475,-3.115,0.659
0.116,0.157,-3.235,-3.392,1.539,1.774,-3.313,0.109,1.375,0.79,-0.625,-0.246,-0.046,0.469,-3.123,0.663
0.117,0.15,-3.241,-3.392,1.546,1.771,-3.317,0.112,1.369,0.782,-0.63,-0.25,-0.051,0.463,-3.127,0.667
0.118,0.147,-3.239,-3.385,1.546,1.766,-3.312,0.113,1.375,0.785,-0.635,-0.257,-0.059,0.454,-3.122,0.668
0.119,0.142,-3.248,-3.39,1.552,1.766,-3.318,0.113,1.373,0.783,-0.637,-0.261,-0.062,0.455,-3.129,0.668
0.12,0.139,-3.25,-3.389,1.556,1.764,-3.319,0.114,1.371,0.782,-0.638,-0.263,-0.061,0.454,-3.13,0.666
0.121,0.139,-3.244,-3.382,1.552,1.76,-3.312,0.116,1.369,0.78,-0.64,-0.263,-0.061,0.449,-3.128,0.658
0.122,0.133,-3.252,-3.384,1.56,1.758,-3.317,0.118,1.371,0.772,-0.647,-0.273,-0.072,0.443,-3.132,0.66
0.123,0.132,-3.253,-3.386,1.561,1.759,-3.32,0.117,1.369,0.773,-0.646,-0.273,-0.075,0.441,-3.132,0.658
0.124,0.136,-3.255,-3.39,1.56,1.763,-3.322,0.117,1.367,0.774,-0.648,-0.273,-0.074,0.443,-3.139,0.659
0.125,0.135,-3.257,-3.392,1.562,1.763,-3.324,0.122,1.373,0.772,-0.654,-0.28,-0.079,0.436,-3.134,0.664
0.126,0.133,-3.26,-3.393,1.563,1.763,-3.326,0.122,1.371,0.774,-0.649,-0.276,-0.076,0.436,-3.129,0.665
0.127,0.129,-3.264,-3.392,1.567,1.76,-3.328,0.122,1.367,0.773,-0.652,-0.281,-0.081,0.431,-3.131,0.671
0.128,0.13,-3.267,-3.396,1.569,1.763,-3.332,0.124,1.367,0.769,-0.654,-0.285,-0.087,0.427,-3.143,0.67
0.129,0.133,-3.267,-3.4,1.567,1.766,-3.333,0.122,1.364,0.763,-0.656,-0.284,-0.086,0.429,-3.147,0.666
0.13,0.134,-3.262,-3.396,1.565,1.764,-3.329,0.128,1.369,0.767,-0.655,-0.282,-0.082,0.429,-3.139,0.666
0.131,0.131,-3.265,-3.397,1.567,1.764,-3.331,0.134,1.379,0.774,-0.651,-0.281,-0.081,0.432,-3.142,0.67
0.132,0.129,-3.269,-3.399,1.57,1.764,-3.334,0.131,1.371,0.768,-0.654,-0.286,-0.089,0.426,-3.147,0.674
0.133,0.132,-3.268,-3.4,1.568,1.766,-3.333,0.13,1.373,0.77,-0.654,-0.286,-0.088,0.426,-3.148,0.673
0.134,0.13,-3.272,-3.401,1.571,1.766,-3.337,0.129,1.375,0.769,-0.659,-0.291,-0.092,0.424,-3.145,0.679
0.135,0.129,-3.272,-3.401,1.571,1.764,-3.336,0.13,1.371,0.766,-0.663,-0.296,-0.1,0.417,-3.144,0.683
0.136,0.126,-3.273,-3.398,1.573,1.762,-3.336,0.133,1.369,0.763,-0.664,-0.296,-0.098,0.417,-3.146,0.679
0.137,0.123,-3.272,-3.396,1.574,1.76,-3.334,0.134,1.369,0.761,-0.666,-0.297,-0.101,0.416,-3.14,0.678
0.138,0.116,-3.278,-3.394,1.581,1.755,-3.336,0.126,1.371,0.762,-0.666,-0.299,-0.103,0.416,-3.136,0.681
0.139,0.111,-3.283,-3.393,1.586,1.752,-3.338,0.122,1.365,0.76,-0.668,-0.3,-0.105,0.416,-3.135,0.683
0.14,0.135,-3.264,-3.398,1.565,1.766,-3.332,0.129,1.369,0.77,-0.659,-0.294,-0.1,0.418,-3.131,0.683
0.141,0.13,-3.274,-3.404,1.572,1.767,-3.339,0.136,1.377,0.779,-0.656,-0.294,-0.102,0.413,-3.143,0.682
0.142,0.119,-3.281,-3.401,1.581,1.76,-3.341,0.136,1.367,0.762,-0.671,-0.306,-0.113,0.405,-3.148,0.684
0.143,0.132,-3.273,-3.405,1.571,1.768,-3.338,0.131,1.363,0.757,-0.674,-0.307,-0.112,0.408,-3.144,0.68
0.144,0.123,-3.281,-3.405,1.579,1.764,-3.343,0.135,1.371,0.765,-0.668,-0.304,-0.111,0.409,-3.147,0.677
0.145,0.122,-3.28,-3.402,1.579,1.762,-3.341,0.134,1.369,0.762,-0.669,-0.304,-0.113,0.406,-3.144,0.679
0.146,0.123,-3.28,-3.404,1.578,1.764,-3.342,0.135,1.367,0.763,-0.67,-0.306,-0.113,0.404,-3.142,0.679
0.147,0.112,-3.293,-3.405,1.591,1.758,-3.349,0.133,1.369,0.761,-0.671,-0.309,-0.116,0.403,-3.158,0.686
0.148,0.111,-3.293,-3.404,1.591,1.757,-3.349,0.13,1.369,0.761,-0.669,-0.304,-0.115,0.402,-3.155,0.683
0.149,0.121,-3.281,-3.402,1.58,1.762,-3.341,0.139,1.375,0.764,-0.668,-0.303,-0.112,0.401,-3.147,0.673
0.15,0.123,-3.284,-3.408,1.581,1.766,-3.346,0.141,1.379,0.762,-0.668,-0.304,-0.113,0.4,-3.159,0.677
0.151,0.125,-3.285,-3.41,1.58,1.768,-3.348,0.139,1.374,0.764,-0.665,-0.303,-0.112,0.402,-3.157,0.677
0.152,0.126,-3.285,-3.412,1.579,1.768,-3.349,0.139,1.374,0.763,-0.665,-0.304,-0.112,0.401,-3.156,0.676
0.153,0.117,-3.288,-3.406,1.585,1.762,-3.348,0.138,1.371,0.761,-0.668,-0.305,-0.113,0.397,-3.155,0.678
0.154,0.117,-3.287,-3.405,1.585,1.761,-3.346,0.137,1.377,0.764,-0.664,-0.301,-0.108,0.4,-3.155,0.678
0.155,0.118,-3.288,-3.405,1.585,1.762,-3.346,0.139,1.379,0.767,-0.662,-0.303,-0.111,0.399,-3.157,0.681
0.156,0.114,-3.28,-3.393,1.583,1.754,-3.337,0.145,1.376,0.763,-0.665,-0.304,-0.111,0.395,-3.144,0.679
0.157,0.117,-3.277,-3.394,1.58,1.756,-3.336,0.144,1.377,0.766,-0.662,-0.298,-0.106,0.401,-3.139,0.678
0.158,0.112,-3.287,-3.398,1.587,1.755,-3.342,0.143,1.378,0.767,-0.666,-0.305,-0.113,0.397,-3.149,0.678
0.159,0.111,-3.29,-3.401,1.59,1.755,-3.345,0.144,1.377,0.765,-0.667,-0.305,-0.114,0.397,-3.155,0.677
0.16,0.119,-3.285,-3.405,1.583,1.762,-3.345,0.139,1.371,0.76,-0.669,-0.307,-0.115,0.398,-3.153,0.677
0.161,0.119,-3.283,-3.402,1.582,1.76,-3.342,0.142,1.377,0.762,-0.67,-0.307,-0.114,0.398,-3.15,0.676
0.162,0.117,-3.288,-3.405,1.585,1.761,-3.346,0.139,1.371,0.769,-0.664,-0.303,-0.114,0.399,-3.157,0.677
0.163,0.118,-3.287,-3.405,1.585,1.762,-3.346,0.141,1.371,0.763,-0.667,-0.305,-0.114,0.396,-3.16,0.67
0.164,0.113,-3.287,-3.4,1.587,1.756,-3.344,0.144,1.377,0.763,-0.669,-0.306,-0.114,0.393,-3.15,0.67
0.165,0.108,-3.287,-3.395,1.589,1.752,-3.341,0.141,1.373,0.765,-0.667,-0.306,-0.117,0.389,-3.147,0.675
0.166,0.113,-3.287,-3.4,1.587,1.756,-3.344,0.147,1.375,0.762,-0.667,-0.305,-0.114,0.392,-3.151,0.678
0.167,0.118,-3.284,-3.402,1.583,1.76,-3.343,0.148,1.38,0.766,-0.666,-0.304,-0.113,0.394,-3.152,0.668
0.168,0.116,-3.283,-3.399,1.583,1.758,-3.341,0.143,1.375,0.766,-0.665,-0.303,-0.115,0.392,-3.155,0.668
0.169,0.114,-3.288,-3.401,1.587,1.756,-3.344,0.139,1.369,0.763,-0.668,-0.306,-0.117,0.39,-3.162,0.669
0.17,0.116,-3.287,-3.403,1.585,1.76,-3.345,0.143,1.375,0.768,-0.667,-0.304,-0.117,0.392,-3.16,0.665
0.171,0.116,-3.285,-3.401,1.585,1.758,-3.344,0.141,1.378,0.769,-0.666,-0.307,-0.118,0.39,-3.156,0.676
0.172,0.114,-3.283,-3.397,1.585,1.756,-3.34,0.141,1.373,0.766,-0.667,-0.306,-0.116,0.391,-3.154,0.673
0.173,0.117,-3.277,-3.394,1.581,1.755,-3.336,0.145,1.374,0.766,-0.665,-0.3,-0.114,0.395,-3.144,0.672
0.174,0.118,-3.276,-3.394,1.579,1.756,-3.335,0.14,1.375,0.767,-0.665,-0.305,-0.117,0.393,-3.147,0.676
0.175,0.123,-3.275,-3.398,1.575,1.76,-3.337,0.143,1.378,0.769,-0.665,-0.305,-0.117,0.394,-3.156,0.674
0.176,0.119,-3.273,-3.392,1.577,1.756,-3.333,0.145,1.379,0.772,-0.663,-0.305,-0.117,0.394,-3.156,0.666
0.177,0.11,-3.277,-3.387,1.584,1.748,-3.333,0.145,1.375,0.767,-0.668,-0.307,-0.117,0.394,-3.155,0.66
0.178,0.104,-3.286,-3.39,1.591,1.747,-3.338,0.143,1.378,0.768,-0.669,-0.309,-0.121,0.392,-3.164,0.668
0.179,0.109,-3.29,-3.399,1.591,1.754,-3.345,0.14,1.369,0.761,-0.674,-0.315,-0.129,0.387,-3.17,0.674
0.18,0.117,-3.283,-3.4,1.583,1.758,-3.341,0.139,1.365,0.761,-0.674,-0.313,-0.127,0.387,-3.155,0.669
0.181,0.115,-3.281,-3.396,1.583,1.756,-3.338,0.143,1.375,0.769,-0.668,-0.308,-0.122,0.39,-3.154,0.669
0.182,0.112,-3.284,-3.396,1.586,1.754,-3.34,0.145,1.373,0.766,-0.67,-0.309,-0.121,0.391,-3.151,0.671
0.183,0.109,-3.283,-3.392,1.587,1.75,-3.337,0.141,1.37,0.765,-0.669,-0.309,-0.12,0.389,-3.148,0.669
0.184,0.108,-3.288,-3.397,1.59,1.752,-3.342,0.142,1.374,0.764,-0.67,-0.309,-0.121,0.39,-3.159,0.67
0.185,0.109,-3.289,-3.398,1.59,1.754,-3.344,0.142,1.375,0.769,-0.665,-0.309,-0.122,0.389,-3.152,0.668
0.186,0.109,-3.288,-3.396,1.589,1.752,-3.341,0.142,1.372,0.767,-0.665,-0.308,-0.121,0.388,-3.148,0.671
0.187,0.117,-3.285,-3.402,1.584,1.76,-3.344,0.141,1.364,0.763,-0.667,-0.307,-0.12,0.393,-3.151,0.681
0.188,0.119,-3.284,-3.402,1.583,1.761,-3.343,0.143,1.371,0.767,-0.666,-0.307,-0.118,0.394,-3.152,0.677
0.189,0.112,-3.284,-3.396,1.586,1.754,-3.34,0.144,1.379,0.769,-0.668,-0.308,-0.118,0.391,-3.154,0.668
0.19,0.111,-3.284,-3.394,1.587,1.753,-3.34,0.141,1.376,0.77,-0.665,-0.305,-0.119,0.39,-3.146,0.672
0.191,0.11,-3.289,-3.398,1.59,1.754,-3.344,0.144,1.377,0.768,-0.667,-0.303,-0.121,0.391,-3.15,0.676
0.192,0.11,-3.288,-3.397,1.589,1.753,-3.342,0.145,1.371,0.767,-0.665,-0.304,-0.118,0.393,-3.161,0.665
0.193,0.109,-3.287,-3.395,1.589,1.752,-3.341,0.144,1.372,0.767,-0.666,-0.306,-0.119,0.39,-3.166,0.661
0.194,0.119,-3.28,-3.4,1.581,1.76,-3.34,0.141,1.38,0.771,-0.666,-0.307,-0.121,0.393,-3.156,0.668
0.195,0.119,-3.276,-3.395,1.578,1.757,-3.336,0.139,1.375,0.771,-0.666,-0.306,-0.119,0.396,-3.153,0.667
0.196,0.112,-3.283,-3.395,1.585,1.754,-3.339,0.137,1.369,0.767,-0.672,-0.309,-0.122,0.396,-3.159,0.674
0.197,0.115,-3.281,-3.397,1.583,1.756,-3.339,0.14,1.372,0.77,-0.67,-0.31,-0.122,0.395,-3.155,0.674
0.198,0.105,-3.28,-3.385,1.587,1.745,-3.332,0.141,1.373,0.77,-0.667,-0.308,-0.121,0.393,-3.154,0.667
0.199,0.106,-3.283,-3.389,1.588,1.748,-3.336,0.138,1.371,0.769,-0.668,-0.306,-0.121,0.395,-3.146,0.675
0.2,0.108,-3.284,-3.392,1.587,1.75,-3.338,0.14,1.373,0.766,-0.67,-0.307,-0.123,0.391,-3.145,0.675
0.201,0.112,-3.277,-3.389,1.583,1.75,-3.333,0.139,1.369,0.766,-0.67,-0.306,-0.121,0.395,-3.148,0.673
0.202,0.111,-3.28,-3.39,1.585,1.75,-3.335,0.141,1.373,0.772,-0.669,-0.307,-0.122,0.392,-3.144,0.668
0.203,0.11,-3.286,-3.397,1.588,1.754,-3.341,0.141,1.377,0.771,-0.669,-0.308,-0.127,0.386,-3.152,0.668
0.204,0.117,-3.284,-3.401,1.583,1.759,-3.342,0.142,1.373,0.771,-0.668,-0.307,-0.124,0.391,-3.162,0.671
0.205,0.114,-3.284,-3.397,1.585,1.756,-3.341,0.147,1.381,0.776,-0.665,-0.306,-0.123,0.39,-3.158,0.662
0.206,0.112,-3.284,-3.395,1.587,1.753,-3.34,0.144,1.379,0.773,-0.666,-0.307,-0.121,0.388,-3.155,0.662
0.207,0.114,-3.283,-3.396,1.585,1.754,-3.34,0.142,1.377,0.771,-0.667,-0.307,-0.121,0.387,-3.152,0.663
0.208,0.118,-3.28,-3.397,1.581,1.758,-3.338,0.142,1.375,0.77,-0.669,-0.307,-0.121,0.387,-3.156,0.658
0.209,0.122,-3.282,-3.404,1.58,1.763,-3.343,0.144,1.377,0.773,-0.669,-0.306,-0.121,0.388,-3.168,0.659
0.21,0.124,-3.287,-3.411,1.581,1.768,-3.349,0.144,1.381,0.776,-0.665,-0.306,-0.12,0.387,-3.167,0.66
0.211,0.121,-3.283,-3.404,1.581,1.762,-3.343,0.145,1.378,0.775,-0.664,-0.304,-0.117,0.388,-3.164,0.658
0.212,0.115,-3.277,-3.392,1.581,1.753,-3.334,0.144,1.376,0.773,-0.664,-0.303,-0.113,0.39,-3.157,0.659
0.213,0.103,-3.295,-3.398,1.595,1.751,-3.346,0.128,1.361,0.761,-0.674,-0.314,-0.124,0.387,-3.163,0.669
0.214,0.122,-3.285,-3.407,1.581,1.765,-3.346,0.135,1.368,0.768,-0.671,-0.312,-0.123,0.389,-3.162,0.673
0.215,0.137,-3.268,-3.405,1.565,1.771,-3.337,0.157,1.383,0.783,-0.658,-0.302,-0.113,0.391,-3.156,0.669
0.216,0.123,-3.278,-3.401,1.577,1.762,-3.34,0.154,1.385,0.783,-0.661,-0.306,-0.117,0.388,-3.156,0.672
0.217,0.12,-3.277,-3.397,1.578,1.759,-3.337,0.146,1.383,0.778,-0.661,-0.306,-0.117,0.388,-3.152,0.673
0.218,0.115,-3.284,-3.398,1.585,1.756,-3.341,0.145,1.375,0.774,-0.662,-0.305,-0.117,0.389,-3.156,0.674
0.219,0.111,-3.286,-3.397,1.587,1.754,-3.341,0.144,1.373,0.771,-0.667,-0.309,-0.121,0.386,-3.155,0.674
0.22,0.107,-3.287,-3.394,1.589,1.75,-3.34,0.146,1.377,0.769,-0.668,-0.314,-0.125,0.38,-3.163,0.667
0.221,0.104,-3.289,-3.394,1.593,1.75,-3.342,0.146,1.377,0.768,-0.669,-0.314,-0.126,0.38,-3.164,0.661
0.222,0.108,-3.288,-3.397,1.59,1.752,-3.342,0.143,1.369,0.765,-0.67,-0.311,-0.126,0.383,-3.162,0.668
0.223,0.111,-3.286,-3.397,1.587,1.754,-3.341,0.146,1.377,0.767,-0.668,-0.31,-0.12,0.386,-3.162,0.668
0.224,0.108,-3.285,-3.393,1.589,1.751,-3.34,0.142,1.375,0.766,-0.67,-0.311,-0.123,0.383,-3.162,0.666
0.225,0.103,-3.292,-3.394,1.595,1.748,-3.343,0.149,1.376,0.771,-0.668,-0.312,-0.131,0.376,-3.165,0.663
0.226,0.102,-3.293,-3.396,1.595,1.75,-3.345,0.151,1.378,0.769,-0.669,-0.312,-0.129,0.378,-3.162,0.665
0.227,0.112,-3.288,-3.399,1.588,1.756,-3.344,0.147,1.379,0.77,-0.668,-0.311,-0.125,0.383,-3.156,0.67
0.228,0.109,-3.285,-3.393,1.588,1.751,-3.339,0.149,1.382,0.773,-0.668,-0.31,-0.124,0.38,-3.155,0.664
0.229,0.099,-3.292,-3.392,1.597,1.745,-3.342,0.142,1.368,0.762,-0.675,-0.314,-0.129,0.378,-3.163,0.67
0.23,0.104,-3.292,-3.397,1.594,1.75,-3.344,0.142,1.371,0.766,-0.673,-0.315,-0.129,0.379,-3.161,0.678
0.231,0.106,-3.287,-3.393,1.59,1.75,-3.34,0.143,1.373,0.767,-0.671,-0.314,-0.127,0.379,-3.152,0.675
0.232,0.112,-3.288,-3.401,1.588,1.756,-3.345,0.141,1.369,0.767,-0.67,-0.312,-0.126,0.384,-3.156,0.681
0.233,0.114,-3.291,-3.405,1.589,1.759,-3.348,0.143,1.375,0.772,-0.671,-0.314,-0.127,0.384,-3.156,0.68
0.234,0.112,-3.29,-3.401,1.589,1.756,-3.346,0.145,1.377,0.769,-0.672,-0.313,-0.127,0.381,-3.153,0.679
0.235,0.113,-3.29,-3.402,1.589,1.758,-3.346,0.142,1.369,0.765,-0.675,-0.314,-0.127,0.381,-3.156,0.682
0.236,0.116,-3.283,-3.398,1.583,1.757,-3.341,0.143,1.373,0.768,-0.674,-0.315,-0.127,0.38,-3.151,0.679
0.237,0.113,-3.279,-3.392,1.583,1.752,-3.336,0.149,1.378,0.772,-0.672,-0.312,-0.125,0.38,-3.146,0.676
0.238,0.1,-3.291,-3.39,1.595,1.744,-3.34,0.148,1.373,0.766,-0.676,-0.318,-0.131,0.379,-3.156,0.678
0.239,0.101,-3.291,-3.393,1.595,1.747,-3.341,0.144,1.371,0.763,-0.68,-0.322,-0.133,0.38,-3.151,0.683
0.24,0.106,-3.286,-3.393,1.59,1.749,-3.339,0.143,1.373,0.766,-0.678,-0.319,-0.129,0.382,-3.148,0.68
0.241,0.106,-3.286,-3.392,1.59,1.749,-3.339,0.145,1.371,0.765,-0.679,-0.321,-0.131,0.378,-3.151,0.676
0.242,0.108,-3.288,-3.396,1.59,1.752,-3.341,0.139,1.365,0.762,-0.679,-0.317,-0.13,0.381,-3.15,0.68
0.243,0.11,-3.284,-3.394,1.587,1.752,-3.34,0.138,1.363,0.76,-0.68,-0.319,-0.13,0.384,-3.147,0.678
0.244,0.1,-3.292,-3.392,1.597,1.746,-3.342,0.138,1.358,0.755,-0.688,-0.328,-0.137,0.376,-3.152,0.679
0.245,0.097,-3.296,-3.393,1.6,1.744,-3.345,0.134,1.358,0.755,-0.687,-0.327,-0.138,0.377,-3.155,0.681
0.246,0.112,-3.281,-3.393,1.584,1.752,-3.337,0.142,1.365,0.762,-0.681,-0.322,-0.131,0.376,-3.148,0.677
0.247,0.108,-3.287,-3.396,1.589,1.752,-3.341,0.147,1.371,0.769,-0.681,-0.324,-0.134,0.37,-3.154,0.676
0.248,0.103,-3.29,-3.393,1.593,1.748,-3.341,0.137,1.363,0.762,-0.683,-0.326,-0.136,0.376,-3.152,0.679
0.249,0.108,-3.284,-3.391,1.587,1.75,-3.337,0.139,1.362,0.763,-0.678,-0.321,-0.132,0.376,-3.152,0.669
0.25,0.115,-3.285,-3.4,1.585,1.758,-3.342,0.149,1.369,0.768,-0.676,-0.321,-0.133,0.376,-3.164,0.674
0.251,0.117,-3.284,-3.401,1.583,1.76,-3.343,0.146,1.368,0.765,-0.68,-0.322,-0.134,0.377,-3.158,0.683
0.252,0.102,-3.299,-3.401,1.599,1.752,-3.35,0.141,1.367,0.761,-0.688,-0.331,-0.14,0.37,-3.162,0.681
0.253,0.108,-3.293,-3.402,1.593,1.756,-3.348,0.142,1.367,0.764,-0.681,-0.324,-0.133,0.378,-3.16,0.683
0.254,0.121,-3.276,-3.397,1.577,1.759,-3.336,0.145,1.368,0.768,-0.679,-0.32,-0.13,0.376,-3.15,0.68
0.255,0.111,-3.284,-3.395,1.587,1.753,-3.34,0.141,1.359,0.758,-0.691,-0.331,-0.141,0.369,-3.148,0.686
0.256,0.107,-3.285,-3.393,1.589,1.75,-3.338,0.139,1.358,0.759,-0.689,-0.329,-0.139,0.373,-3.147,0.684
0.257,0.107,-3.286,-3.393,1.589,1.75,-3.339,0.141,1.36,0.761,-0.689,-0.331,-0.139,0.37,-3.147,0.681
0.258,0.107,-3.292,-3.399,1.593,1.753,-3.345,0.141,1.363,0.76,-0.689,-0.33,-0.138,0.375,-3.15,0.688
0.259,0.11,-3.288,-3.398,1.589,1.754,-3.344,0.137,1.365,0.764,-0.688,-0.329,-0.14,0.375,-3.154,0.685
0.26,0.107,-3.284,-3.391,1.589,1.749,-3.337,0.141,1.363,0.762,-0.687,-0.329,-0.139,0.371,-3.15,0.676
0.261,0.102,-3.294,-3.397,1.596,1.75,-3.345,0.143,1.363,0.76,-0.69,-0.332,-0.142,0.369,-3.154,0.686
0.262,0.099,-3.296,-3.396,1.599,1.747,-3.346,0.138,1.355,0.754,-0.694,-0.336,-0.145,0.368,-3.151,0.691
0.263,0.097,-3.293,-3.39,1.599,1.744,-3.342,0.138,1.355,0.753,-0.694,-0.333,-0.144,0.369,-3.151,0.683
0.264,0.095,-3.293,-3.389,1.599,1.742,-3.341,0.137,1.357,0.756,-0.692,-0.333,-0.145,0.368,-3.159,0.676
0.265,0.088,-3.3,-3.387,1.606,1.738,-3.344,0.141,1.357,0.753,-0.694,-0.336,-0.148,0.366,-3.169,0.675
0.266,0.09,-3.303,-3.393,1.606,1.742,-3.348,0.145,1.366,0.757,-0.693,-0.337,-0.147,0.365,-3.172,0.676
0.267,0.096,-3.293,-3.389,1.599,1.742,-3.341,0.144,1.361,0.753,-0.695,-0.338,-0.147,0.363,-3.158,0.677
0.268,0.104,-3.294,-3.398,1.595,1.751,-3.346,0.141,1.357,0.749,-0.697,-0.338,-0.144,0.367,-3.164,0.686
0.269,0.105,-3.294,-3.399,1.595,1.752,-3.347,0.141,1.363,0.76,-0.689,-0.332,-0.141,0.371,-3.164,0.681
0.27,0.095,-3.296,-3.39,1.601,1.742,-3.343,0.149,1.363,0.758,-0.691,-0.336,-0.146,0.365,-3.16,0.681
0.271,0.098,-3.299,-3.396,1.601,1.746,-3.348,0.147,1.36,0.753,-0.694,-0.337,-0.147,0.365,-3.163,0.681
0.272,0.093,-3.301,-3.394,1.604,1.744,-3.348,0.147,1.36,0.755,-0.694,-0.337,-0.147,0.361,-3.167,0.679
0.273,0.093,-3.298,-3.392,1.603,1.742,-3.345,0.145,1.363,0.756,-0.693,-0.337,-0.146,0.363,-3.166,0.684
0.274,0.102,-3.29,-3.392,1.594,1.747,-3.341,0.141,1.359,0.755,-0.692,-0.336,-0.145,0.366,-3.162,0.679
0.275,0.102,-3.288,-3.39,1.593,1.746,-3.34,0.147,1.361,0.755,-0.693,-0.336,-0.145,0.364,-3.164,0.679
0.276,0.1,-3.289,-3.389,1.595,1.744,-3.34,0.144,1.361,0.756,-0.693,-0.336,-0.145,0.362,-3.152,0.682
0.277,0.095,-3.291,-3.385,1.598,1.74,-3.338,0.146,1.358,0.756,-0.697,-0.339,-0.15,0.356,-3.153,0.677
0.278,0.094,-3.292,-3.386,1.599,1.74,-3.339,0.146,1.357,0.753,-0.697,-0.338,-0.149,0.359,-3.159,0.679
0.279,0.092,-3.299,-3.39,1.603,1.741,-3.345,0.146,1.358,0.753,-0.699,-0.343,-0.152,0.36,-3.158,0.684
0.28,0.096,-3.297,-3.393,1.601,1.744,-3.345,0.147,1.355,0.75,-0.701,-0.344,-0.155,0.356,-3.16,0.686
0.281,0.1,-3.292,-3.392,1.596,1.746,-3.341,0.14,1.357,0.749,-0.697,-0.337,-0.145,0.362,-3.153,0.685
0.282,0.089,-3.3,-3.389,1.605,1.739,-3.345,0.149,1.361,0.753,-0.698,-0.338,-0.146,0.358,-3.156,0.684
0.283,0.099,-3.296,-3.396,1.599,1.748,-3.346,0.144,1.357,0.749,-0.702,-0.343,-0.154,0.355,-3.161,0.684
0.284,0.103,-3.287,-3.39,1.592,1.746,-3.338,0.142,1.359,0.749,-0.704,-0.342,-0.15,0.356,-3.151,0.683
0.285,0.098,-3.294,-3.392,1.598,1.744,-3.343,0.15,1.36,0.752,-0.7,-0.339,-0.149,0.351,-3.155,0.688
0.286,0.101,-3.291,-3.392,1.595,1.746,-3.341,0.147,1.355,0.749,-0.7,-0.34,-0.149,0.354,-3.16,0.685
0.287,0.096,-3.293,-3.389,1.599,1.742,-3.341,0.149,1.359,0.748,-0.702,-0.343,-0.148,0.355,-3.164,0.684
0.288,0.097,-3.296,-3.394,1.599,1.746,-3.345,0.15,1.365,0.754,-0.696,-0.337,-0.142,0.358,-3.162,0.688
0.289,0.094,-3.296,-3.39,1.601,1.742,-3.343,0.151,1.361,0.754,-0.695,-0.337,-0.143,0.357,-3.163,0.687
0.29,0.087,-3.302,-3.389,1.607,1.738,-3.346,0.148,1.359,0.748,-0.703,-0.346,-0.153,0.349,-3.169,0.692
0.291,0.089,-3.3,-3.389,1.605,1.739,-3.345,0.152,1.363,0.75,-0.703,-0.348,-0.155,0.347,-3.17,0.69
0.292,0.096,-3.294,-3.39,1.599,1.743,-3.342,0.154,1.361,0.751,-0.701,-0.344,-0.149,0.35,-3.171,0.685
0.293,0.103,-3.292,-3.396,1.594,1.75,-3.344,0.148,1.359,0.75,-0.7,-0.344,-0.147,0.354,-3.172,0.682
0.294,0.104,-3.289,-3.393,1.593,1.749,-3.341,0.15,1.362,0.751,-0.7,-0.344,-0.15,0.353,-3.17,0.682
0.295,0.102,-3.288,-3.39,1.593,1.746,-3.34,0.148,1.357,0.748,-0.702,-0.345,-0.15,0.353,-3.162,0.691
0.296,0.099,-3.293,-3.392,1.597,1.745,-3.342,0.147,1.361,0.75,-0.702,-0.348,-0.153,0.352,-3.166,0.686
0.297,0.096,-3.295,-3.39,1.6,1.743,-3.343,0.147,1.361,0.75,-0.704,-0.348,-0.153,0.352,-3.164,0.688
0.298,0.095,-3.29,-3.384,1.598,1.74,-3.337,0.146,1.357,0.749,-0.704,-0.348,-0.152,0.347,-3.156,0.687
0.299,0.091,-3.29,-3.381,1.599,1.736,-3.336,0.152,1.362,0.751,-0.703,-0.348,-0.155,0.344,-3.158,0.682
0.3,0.089,-3.292,-3.381,1.601,1.736,-3.337,0.148,1.353,0.745,-0.709,-0.35,-0.157,0.35,-3.162,0.688
0.301,0.098,-3.291,-3.389,1.597,1.743,-3.34,0.146,1.353,0.745,-0.708,-0.352,-0.159,0.35,-3.156,0.691
0.302,0.097,-3.296,-3.392,1.6,1.744,-3.344,0.149,1.358,0.748,-0.708,-0.353,-0.162,0.345,-3.16,0.689
0.303,0.097,-3.296,-3.393,1.599,1.744,-3.344,0.147,1.352,0.748,-0.711,-0.354,-0.161,0.346,-3.167,0.685
0.304,0.101,-3.296,-3.397,1.598,1.749,-3.347,0.148,1.355,0.745,-0.711,-0.354,-0.161,0.349,-3.163,0.69
0.305,0.096,-3.302,-3.397,1.603,1.746,-3.349,0.155,1.361,0.749,-0.709,-0.351,-0.159,0.347,-3.165,0.686
0.306,0.093,-3.295,-3.389,1.601,1.741,-3.342,0.157,1.357,0.752,-0.702,-0.345,-0.152,0.349,-3.165,0.682
0.307,0.086,-3.3,-3.386,1.607,1.736,-3.344,0.146,1.351,0.743,-0.709,-0.353,-0.156,0.35,-3.162,0.685
0.308,0.09,-3.301,-3.391,1.605,1.74,-3.346,0.145,1.35,0.745,-0.711,-0.353,-0.156,0.349,-3.158,0.685
0.309,0.093,-3.295,-3.388,1.601,1.74,-3.341,0.144,1.351,0.745,-0.708,-0.349,-0.152,0.351,-3.148,0.69
0.31,0.09,-3.297,-3.388,1.604,1.739,-3.342,0.147,1.356,0.746,-0.71,-0.356,-0.162,0.343,-3.15,0.69
0.311,0.092,-3.3,-3.392,1.604,1.742,-3.346,0.15,1.353,0.744,-0.71,-0.355,-0.163,0.344,-3.163,0.69
0.312,0.096,-3.296,-3.392,1.6,1.744,-3.344,0.15,1.35,0.741,-0.709,-0.352,-0.158,0.35,-3.167,0.689
0.313,0.099,-3.291,-3.389,1.595,1.744,-3.34,0.147,1.358,0.746,-0.706,-0.351,-0.158,0.348,-3.163,0.69
0.314,0.093,-3.294,-3.388,1.601,1.74,-3.341,0.148,1.357,0.745,-0.708,-0.354,-0.158,0.347,-3.163,0.689
0.315,0.092,-3.292,-3.385,1.601,1.738,-3.338,0.152,1.351,0.744,-0.707,-0.353,-0.158,0.347,-3.159,0.687
0.316,0.091,-3.295,-3.386,1.601,1.739,-3.341,0.145,1.351,0.742,-0.71,-0.354,-0.16,0.346,-3.163,0.695
0.317,0.094,-3.289,-3.383,1.597,1.738,-3.336,0.145,1.353,0.744,-0.71,-0.355,-0.161,0.344,-3.159,0.685
0.318,0.1,-3.283,-3.382,1.591,1.742,-3.333,0.146,1.353,0.744,-0.711,-0.354,-0.161,0.345,-3.158,0.688
0.319,0.095,-3.291,-3.386,1.597,1.74,-3.338,0.15,1.355,0.745,-0.712,-0.355,-0.163,0.345,-3.16,0.692
0.32,0.092,-3.289,-3.381,1.599,1.737,-3.335,0.146,1.353,0.745,-0.713,-0.356,-0.163,0.342,-3.149,0.686
0.321,0.092,-3.292,-3.384,1.601,1.738,-3.338,0.143,1.349,0.744,-0.714,-0.356,-0.163,0.344,-3.153,0.69
0.322,0.096,-3.291,-3.387,1.598,1.741,-3.34,0.147,1.351,0.744,-0.715,-0.355,-0.165,0.344,-3.157,0.691
0.323,0.089,-3.297,-3.387,1.604,1.738,-3.342,0.139,1.341,0.735,-0.721,-0.36,-0.168,0.342,-3.158,0.697
0.324,0.071,-3.313,-3.385,1.621,1.728,-3.349,0.132,1.339,0.734,-0.722,-0.363,-0.171,0.34,-3.162,0.693
0.325,0.091,-3.295,-3.385,1.602,1.738,-3.34,0.148,1.353,0.745,-0.714,-0.354,-0.163,0.343,-3.16,0.686
0.326,0.109,-3.28,-3.389,1.585,1.75,-3.334,0.153,1.351,0.746,-0.708,-0.346,-0.155,0.349,-3.158,0.689
0.327,0.098,-3.29,-3.389,1.596,1.744,-3.339,0.143,1.343,0.745,-0.709,-0.348,-0.157,0.348,-3.155,0.689
0.328,0.097,-3.288,-3.385,1.596,1.74,-3.337,0.151,1.354,0.745,-0.71,-0.351,-0.159,0.344,-3.156,0.689
0.329,0.1,-3.285,-3.385,1.593,1.742,-3.334,0.151,1.36,0.75,-0.708,-0.349,-0.156,0.346,-3.155,0.689
0.33,0.102,-3.286,-3.388,1.592,1.745,-3.337,0.149,1.355,0.751,-0.706,-0.345,-0.153,0.349,-3.155,0.688
0.331,0.099,-3.285,-3.384,1.593,1.742,-3.334,0.153,1.361,0.753,-0.705,-0.348,-0.157,0.345,-3.151,0.689
0.332,0.095,-3.286,-3.381,1.595,1.738,-3.333,0.152,1.355,0.75,-0.707,-0.35,-0.158,0.346,-3.152,0.692
0.333,0.097,-3.285,-3.381,1.594,1.738,-3.333,0.155,1.353,0.744,-0.709,-0.351,-0.157,0.346,-3.167,0.69
0.334,0.095,-3.287,-3.381,1.595,1.738,-3.334,0.157,1.361,0.75,-0.709,-0.356,-0.162,0.341,-3.17,0.683
0.335,0.088,-3.284,-3.373,1.598,1.73,-3.329,0.156,1.353,0.744,-0.713,-0.355,-0.163,0.338,-3.163,0.68
0.336,0.091,-3.284,-3.374,1.597,1.732,-3.329,0.149,1.348,0.739,-0.716,-0.357,-0.166,0.336,-3.155,0.693
0.337,0.097,-3.288,-3.385,1.595,1.741,-3.337,0.15,1.355,0.746,-0.714,-0.357,-0.165,0.34,-3.155,0.702
0.338,0.099,-3.28,-3.378,1.591,1.738,-3.329,0.146,1.352,0.742,-0.714,-0.352,-0.16,0.344,-3.158,0.69
0.339,0.096,-3.284,-3.379,1.594,1.737,-3.331,0.145,1.347,0.737,-0.718,-0.359,-0.166,0.342,-3.16,0.691
0.34,0.097,-3.282,-3.379,1.593,1.738,-3.33,0.149,1.353,0.742,-0.716,-0.36,-0.165,0.343,-3.155,0.689
0.341,0.095,-3.278,-3.373,1.591,1.734,-3.325,0.147,1.351,0.744,-0.712,-0.354,-0.161,0.344,-3.149,0.683
0.342,0.095,-3.284,-3.378,1.595,1.736,-3.331,0.149,1.351,0.742,-0.714,-0.357,-0.164,0.344,-3.155,0.685
0.343,0.093,-3.288,-3.381,1.597,1.738,-3.334,0.149,1.351,0.739,-0.719,-0.361,-0.166,0.342,-3.159,0.682
0.344,0.085,-3.295,-3.38,1.605,1.732,-3.337,0.149,1.347,0.741,-0.717,-0.359,-0.166,0.341,-3.163,0.68
0.345,0.084,-3.293,-3.377,1.605,1.73,-3.335,0.15,1.347,0.738,-0.718,-0.36,-0.167,0.339,-3.156,0.691
0.346,0.088,-3.287,-3.374,1.599,1.731,-3.33,0.148,1.351,0.743,-0.713,-0.358,-0.162,0.341,-3.141,0.695
0.347,0.087,-3.292,-3.379,1.603,1.733,-3.336,0.141,1.35,0.744,-0.711,-0.357,-0.163,0.343,-3.151,0.692
0.348,0.084,-3.299,-3.382,1.607,1.733,-3.341,0.144,1.343,0.73,-0.721,-0.365,-0.17,0.338,-3.159,0.7
0.349,0.09,-3.293,-3.383,1.602,1.736,-3.338,0.152,1.349,0.737,-0.717,-0.361,-0.166,0.34,-3.155,0.7
0.35,0.089,-3.296,-3.385,1.603,1.736,-3.341,0.154,1.354,0.741,-0.717,-0.362,-0.169,0.339,-3.163,0.697
0.351,0.087,-3.294,-3.381,1.603,1.734,-3.338,0.151,1.355,0.74,-0.713,-0.359,-0.163,0.341,-3.157,0.692
0.352,0.092,-3.289,-3.381,1.598,1.737,-3.335,0.147,1.354,0.743,-0.708,-0.352,-0.158,0.344,-3.154,0.688
0.353,0.088,-3.289,-3.378,1.601,1.734,-3.333,0.148,1.35,0.742,-0.713,-0.357,-0.164,0.344,-3.161,0.694
0.354,0.09,-3.284,-3.375,1.597,1.732,-3.33,0.148,1.349,0.739,-0.717,-0.361,-0.166,0.344,-3.156,0.695
0.355,0.09,-3.281,-3.372,1.595,1.731,-3.326,0.148,1.347,0.737,-0.72,-0.362,-0.166,0.345,-3.16,0.692
0.356,0.088,-3.283,-3.37,1.597,1.73,-3.326,0.151,1.35,0.74,-0.717,-0.361,-0.164,0.347,-3.163,0.695
0.357,0.088,-3.287,-3.376,1.599,1.732,-3.332,0.148,1.349,0.738,-0.717,-0.362,-0.168,0.344,-3.166,0.699
0.358,0.088,-3.288,-3.376,1.599,1.732,-3.332,0.146,1.347,0.736,-0.719,-0.363,-0.169,0.344,-3.171,0.695
0.359,0.089,-3.282,-3.372,1.596,1.73,-3.327,0.149,1.351,0.739,-0.716,-0.36,-0.166,0.345,-3.163,0.688
0.36,0.088,-3.284,-3.373,1.598,1.73,-3.329,0.15,1.351,0.738,-0.718,-0.362,-0.168,0.344,-3.158,0.693
0.361,0.092,-3.285,-3.377,1.597,1.734,-3.331,0.145,1.349,0.736,-0.72,-0.364,-0.168,0.346,-3.163,0.694
0.362,0.093,-3.282,-3.376,1.595,1.734,-3.329,0.146,1.351,0.741,-0.717,-0.362,-0.165,0.347,-3.164,0.688
0.363,0.088,-3.286,-3.375,1.599,1.732,-3.33,0.149,1.351,0.74,-0.718,-0.364,-0.167,0.344,-3.169,0.689
0.364,0.085,-3.288,-3.373,1.602,1.73,-3.331,0.146,1.352,0.738,-0.72,-0.364,-0.169,0.341,-3.172,0.689
0.365,0.088,-3.285,-3.373,1.599,1.731,-3.329,0.146,1.351,0.739,-0.717,-0.359,-0.167,0.341,-3.166,0.684
0.366,0.085,-3.287,-3.372,1.601,1.728,-3.329,0.145,1.345,0.737,-0.717,-0.36,-0.164,0.343,-3.162,0.687
0.367,0.075,-3.3,-3.374,1.612,1.725,-3.337,0.142,1.343,0.732,-0.723,-0.366,-0.169,0.34,-3.169,0.695
0.368,0.086,-3.292,-3.379,1.603,1.732,-3.336,0.149,1.347,0.737,-0.72,-0.365,-0.17,0.335,-3.174,0.693
0.369,0.097,-3.276,-3.373,1.589,1.734,-3.324,0.152,1.351,0.741,-0.716,-0.359,-0.166,0.334,-3.164,0.687
0.37,0.1,-3.273,-3.373,1.587,1.736,-3.322,0.148,1.351,0.74,-0.715,-0.358,-0.165,0.338,-3.155,0.689
0.371,0.102,-3.272,-3.373,1.585,1.738,-3.323,0.149,1.351,0.742,-0.714,-0.356,-0.163,0.339,-3.159,0.685
0.372,0.096,-3.277,-3.373,1.591,1.734,-3.325,0.149,1.348,0.74,-0.713,-0.355,-0.161,0.34,-3.164,0.685
0.373,0.092,-3.285,-3.378,1.597,1.735,-3.332,0.149,1.35,0.738,-0.717,-0.361,-0.167,0.337,-3.167,0.694
0.374,0.096,-3.285,-3.381,1.595,1.738,-3.333,0.144,1.343,0.735,-0.719,-0.364,-0.171,0.335,-3.16,0.703
0.375,0.094,-3.277,-3.372,1.591,1.733,-3.325,0.145,1.341,0.733,-0.719,-0.364,-0.168,0.336,-3.151,0.695
0.376,0.088,-3.28,-3.369,1.596,1.728,-3.325,0.148,1.347,0.737,-0.719,-0.364,-0.169,0.335,-3.155,0.689
0.377,0.088,-3.281,-3.369,1.597,1.729,-3.325,0.15,1.346,0.736,-0.718,-0.361,-0.168,0.337,-3.16,0.69
0.378,0.086,-3.278,-3.364,1.596,1.725,-3.321,0.152,1.347,0.736,-0.718,-0.363,-0.168,0.334,-3.155,0.685
0.379,0.088,-3.279,-3.367,1.595,1.728,-3.323,0.149,1.349,0.735,-0.717,-0.365,-0.168,0.334,-3.151,0.688
0.38,0.09,-3.282,-3.373,1.595,1.732,-3.328,0.149,1.349,0.734,-0.718,-0.364,-0.17,0.336,-3.152,0.693
0.381,0.088,-3.286,-3.374,1.599,1.732,-3.33,0.145,1.345,0.732,-0.719,-0.363,-0.171,0.335,-3.155,0.694
0.382,0.089,-3.285,-3.374,1.598,1.732,-3.33,0.146,1.344,0.734,-0.715,-0.361,-0.168,0.338,-3.155,0.688
0.383,0.092,-3.284,-3.376,1.595,1.734,-3.329,0.144,1.349,0.74,-0.713,-0.359,-0.168,0.339,-3.153,0.686
0.384,0.091,-3.286,-3.377,1.597,1.734,-3.332,0.147,1.347,0.733,-0.717,-0.364,-0.17,0.338,-3.155,0.691
0.385,0.088,-3.285,-3.373,1.599,1.73,-3.329,0.152,1.348,0.734,-0.716,-0.362,-0.167,0.336,-3.152,0.685
0.386,0.089,-3.282,-3.371,1.597,1.73,-3.326,0.148,1.351,0.735,-0.713,-0.359,-0.165,0.337,-3.152,0.685
0.387,0.087,-3.284,-3.372,1.598,1.73,-3.328,0.145,1.345,0.734,-0.716,-0.362,-0.165,0.337,-3.155,0.687
0.388,0.087,-3.28,-3.367,1.596,1.727,-3.324,0.147,1.347,0.737,-0.715,-0.361,-0.165,0.336,-3.148,0.684
0.389,0.086,-3.287,-3.373,1.6,1.729,-3.329,0.149,1.349,0.736,-0.717,-0.364,-0.168,0.335,-3.159,0.69
0.39,0.079,-3.295,-3.374,1.608,1.726,-3.334,0.143,1.345,0.736,-0.72,-0.366,-0.171,0.333,-3.166,0.692
0.391,0.076,-3.295,-3.37,1.609,1.723,-3.333,0.142,1.343,0.734,-0.72,-0.366,-0.172,0.334,-3.154,0.695
0.392,0.096,-3.277,-3.373,1.591,1.734,-3.325,0.155,1.353,0.745,-0.711,-0.357,-0.164,0.337,-3.147,0.692
0.393,0.101,-3.273,-3.374,1.586,1.738,-3.324,0.155,1.343,0.743,-0.712,-0.356,-0.162,0.338,-3.15,0.692
0.394,0.091,-3.287,-3.377,1.597,1.734,-3.332,0.14,1.337,0.733,-0.721,-0.363,-0.169,0.337,-3.166,0.699
0.395,0.087,-3.288,-3.375,1.6,1.731,-3.332,0.141,1.35,0.742,-0.716,-0.362,-0.17,0.337,-3.167,0.697
0.396,0.086,-3.287,-3.373,1.6,1.73,-3.33,0.145,1.345,0.739,-0.718,-0.362,-0.171,0.336,-3.154,0.698
0.397,0.088,-3.281,-3.37,1.597,1.729,-3.325,0.142,1.341,0.735,-0.719,-0.361,-0.166,0.339,-3.152,0.698
0.398,0.086,-3.287,-3.373,1.601,1.73,-3.329,0.14,1.335,0.728,-0.722,-0.365,-0.169,0.339,-3.162,0.701
0.399,0.089,-3.284,-3.373,1.597,1.731,-3.328,0.142,1.34,0.733,-0.722,-0.367,-0.173,0.334,-3.155,0.699
0.4,0.089,-3.276,-3.365,1.593,1.728,-3.321,0.145,1.345,0.737,-0.719,-0.364,-0.17,0.334,-3.147,0.69
0.401,0.093,-3.276,-3.369,1.591,1.731,-3.322,0.143,1.344,0.736,-0.722,-0.365,-0.171,0.335,-3.145,0.691
0.402,0.092,-3.275,-3.367,1.591,1.73,-3.321,0.144,1.343,0.739,-0.718,-0.363,-0.168,0.337,-3.151,0.687
0.403,0.088,-3.28,-3.368,1.596,1.728,-3.324,0.145,1.343,0.737,-0.721,-0.366,-0.171,0.335,-3.162,0.689
0.404,0.089,-3.28,-3.369,1.595,1.729,-3.324,0.145,1.346,0.739,-0.72,-0.364,-0.169,0.336,-3.159,0.69
0.405,0.092,-3.276,-3.368,1.592,1.73,-3.322,0.148,1.343,0.739,-0.718,-0.36,-0.169,0.336,-3.157,0.686
0.406,0.097,-3.272,-3.37,1.588,1.734,-3.321,0.148,1.346,0.742,-0.719,-0.365,-0.174,0.329,-3.148,0.689
0.407,0.094,-3.27,-3.365,1.588,1.729,-3.317,0.142,1.344,0.741,-0.717,-0.361,-0.167,0.334,-3.138,0.691
0.408,0.093,-3.267,-3.361,1.587,1.727,-3.314,0.145,1.341,0.737,-0.716,-0.358,-0.163,0.335,-3.139,0.691
0.409,0.099,-3.268,-3.366,1.585,1.732,-3.317,0.15,1.352,0.745,-0.714,-0.359,-0.166,0.333,-3.138,0.688
0.41,0.094,-3.273,-3.368,1.59,1.731,-3.321,0.149,1.351,0.743,-0.716,-0.359,-0.167,0.33,-3.142,0.688
0.411,0.095,-3.275,-3.369,1.59,1.732,-3.321,0.147,1.345,0.738,-0.716,-0.36,-0.166,0.329,-3.152,0.689
0.412,0.101,-3.273,-3.375,1.587,1.738,-3.324,0.141,1.343,0.74,-0.717,-0.362,-0.168,0.332,-3.155,0.691
0.413,0.1,-3.271,-3.37,1.585,1.736,-3.321,0.139,1.337,0.737,-0.718,-0.362,-0.168,0.334,-3.151,0.691
0.414,0.103,-3.267,-3.37,1.581,1.736,-3.318,0.146,1.346,0.741,-0.716,-0.361,-0.168,0.333,-3.151,0.685
0.415,0.101,-3.272,-3.373,1.585,1.737,-3.322,0.142,1.347,0.742,-0.718,-0.362,-0.168,0.333,-3.163,0.683
0.416,0.093,-3.277,-3.369,1.592,1.731,-3.324,0.141,1.343,0.738,-0.72,-0.366,-0.172,0.332,-3.17,0.684
0.417,0.091,-3.272,-3.364,1.591,1.728,-3.318,0.15,1.347,0.738,-0.723,-0.367,-0.174,0.327,-3.158,0.679
0.418,0.095,-3.276,-3.372,1.591,1.733,-3.324,0.144,1.343,0.739,-0.72,-0.365,-0.171,0.331,-3.153,0.693
0.419,0.096,-3.275,-3.371,1.589,1.734,-3.323,0.136,1.339,0.738,-0.72,-0.364,-0.168,0.334,-3.149,0.702
0.42,0.092,-3.268,-3.361,1.588,1.726,-3.314,0.139,1.343,0.741,-0.72,-0.364,-0.17,0.329,-3.144,0.691
0.421,0.098,-3.269,-3.366,1.586,1.732,-3.318,0.131,1.335,0.738,-0.721,-0.365,-0.171,0.331,-3.148,0.693
0.422,0.098,-3.263,-3.361,1.583,1.73,-3.312,0.132,1.337,0.739,-0.72,-0.36,-0.167,0.333,-3.139,0.687
0.423,0.099,-3.262,-3.361,1.582,1.73,-3.312,0.139,1.35,0.748,-0.713,-0.358,-0.166,0.332,-3.135,0.684
0.424,0.104,-3.259,-3.364,1.577,1.734,-3.311,0.133,1.341,0.745,-0.711,-0.353,-0.16,0.337,-3.139,0.682
0.425,0.101,-3.249,-3.35,1.574,1.726,-3.3,0.131,1.339,0.744,-0.71,-0.35,-0.157,0.334,-3.128,0.677
0.426,0.102,-3.246,-3.349,1.571,1.726,-3.297,0.137,1.344,0.745,-0.711,-0.352,-0.161,0.329,-3.127,0.679
0.427,0.103,-3.244,-3.348,1.571,1.726,-3.296,0.136,1.339,0.746,-0.71,-0.351,-0.159,0.329,-3.126,0.675
0.428,0.1,-3.232,-3.333,1.567,1.716,-3.283,0.123,1.325,0.74,-0.713,-0.354,-0.155,0.325,-3.107,0.679
0.429,0.097,-3.227,-3.324,1.565,1.71,-3.275,0.124,1.321,0.735,-0.713,-0.35,-0.153,0.323,-3.107,0.674
0.43,0.096,-3.228,-3.325,1.566,1.71,-3.276,0.122,1.324,0.738,-0.713,-0.353,-0.158,0.321,-3.103,0.671
0.431,0.097,-3.22,-3.317,1.562,1.706,-3.268,0.116,1.326,0.744,-0.708,-0.348,-0.151,0.324,-3.091,0.669
0.432,0.094,-3.211,-3.304,1.558,1.7,-3.257,0.123,1.323,0.742,-0.707,-0.342,-0.147,0.322,-3.088,0.66
0.433,0.096,-3.204,-3.3,1.554,1.698,-3.252,0.12,1.317,0.735,-0.712,-0.347,-0.152,0.315,-3.084,0.662
0.434,0.096,-3.207,-3.304,1.556,1.7,-3.255,0.116,1.317,0.736,-0.712,-0.347,-0.152,0.316,-3.091,0.666
0.435,0.095,-3.206,-3.301,1.556,1.698,-3.253,0.115,1.314,0.735,-0.713,-0.349,-0.152,0.315,-3.082,0.668
0.436,0.1,-3.199,-3.299,1.55,1.699,-3.249,0.11,1.315,0.736,-0.71,-0.346,-0.149,0.319,-3.07,0.669
0.437,0.101,-3.202,-3.303,1.55,1.702,-3.252,0.111,1.313,0.734,-0.711,-0.347,-0.15,0.318,-3.075,0.671
0.438,0.099,-3.2,-3.3,1.551,1.699,-3.25,0.11,1.31,0.734,-0.712,-0.348,-0.151,0.316,-3.074,0.663
0.439,0.1,-3.201,-3.301,1.551,1.7,-3.252,0.113,1.313,0.735,-0.711,-0.347,-0.15,0.319,-3.073,0.663
0.44,0.105,-3.196,-3.3,1.546,1.702,-3.248,0.115,1.315,0.735,-0.711,-0.345,-0.148,0.319,-3.072,0.664
0.441,0.103,-3.199,-3.303,1.548,1.703,-3.251,0.115,1.323,0.738,-0.711,-0.346,-0.149,0.319,-3.078,0.66
0.442,0.107,-3.197,-3.304,1.544,1.706,-3.251,0.117,1.323,0.739,-0.709,-0.346,-0.15,0.318,-3.078,0.664
0.443,0.099,-3.201,-3.3,1.551,1.7,-3.251,0.107,1.315,0.738,-0.707,-0.343,-0.149,0.321,-3.073,0.661
0.444,0.081,-3.222,-3.303,1.57,1.692,-3.263,0.108,1.313,0.731,-0.715,-0.351,-0.157,0.319,-3.081,0.665
0.445,0.101,-3.207,-3.308,1.553,1.704,-3.257,0.119,1.324,0.738,-0.71,-0.347,-0.151,0.321,-3.084,0.665
0.446,0.11,-3.203,-3.312,1.546,1.711,-3.257,0.123,1.331,0.748,-0.702,-0.34,-0.146,0.326,-3.084,0.665
0.447,0.105,-3.207,-3.312,1.55,1.709,-3.26,0.129,1.328,0.746,-0.704,-0.343,-0.148,0.324,-3.087,0.666
0.448,0.108,-3.201,-3.309,1.546,1.709,-3.256,0.129,1.331,0.749,-0.703,-0.34,-0.147,0.325,-3.088,0.661
0.449,0.102,-3.206,-3.308,1.552,1.706,-3.257,0.124,1.329,0.747,-0.704,-0.342,-0.15,0.325,-3.086,0.664
0.45,0.104,-3.211,-3.314,1.553,1.71,-3.263,0.121,1.331,0.747,-0.704,-0.343,-0.149,0.327,-3.088,0.67
0.451,0.111,-3.203,-3.314,1.546,1.712,-3.259,0.12,1.329,0.746,-0.703,-0.341,-0.147,0.329,-3.089,0.665
0.452,0.112,-3.2,-3.312,1.544,1.712,-3.256,0.114,1.321,0.741,-0.703,-0.343,-0.147,0.328,-3.091,0.661
0.453,0.112,-3.201,-3.313,1.544,1.713,-3.257,0.106,1.32,0.742,-0.701,-0.34,-0.146,0.331,-3.098,0.66
0.454,0.113,-3.195,-3.308,1.542,1.71,-3.252,0.106,1.316,0.739,-0.703,-0.34,-0.145,0.335,-3.099,0.66
0.455,0.115,-3.188,-3.303,1.537,1.708,-3.245,0.102,1.316,0.739,-0.705,-0.342,-0.146,0.335,-3.089,0.664
0.456,0.112,-3.183,-3.295,1.536,1.704,-3.239,0.102,1.327,0.742,-0.705,-0.341,-0.146,0.334,-3.079,0.661
0.457,0.107,-3.186,-3.293,1.539,1.7,-3.239,0.099,1.319,0.737,-0.707,-0.343,-0.147,0.335,-3.083,0.668
0.458,0.117,-3.183,-3.3,1.534,1.708,-3.241,0.09,1.31,0.738,-0.705,-0.34,-0.143,0.342,-3.084,0.67
0.459,0.123,-3.174,-3.297,1.525,1.71,-3.236,0.085,1.312,0.738,-0.705,-0.339,-0.14,0.345,-3.079,0.668
0.46,0.12,-3.174,-3.294,1.527,1.707,-3.234,0.082,1.304,0.731,-0.711,-0.343,-0.144,0.341,-3.074,0.68
0.461,0.113,-3.183,-3.296,1.535,1.704,-3.24,0.083,1.302,0.728,-0.715,-0.347,-0.148,0.338,-3.074,0.691
0.462,0.108,-3.184,-3.292,1.538,1.7,-3.239,0.077,1.3,0.724,-0.719,-0.349,-0.148,0.336,-3.074,0.694
0.463,0.11,-3.184,-3.294,1.537,1.702,-3.24,0.074,1.302,0.725,-0.719,-0.35,-0.149,0.336,-3.07,0.701
0.464,0.115,-3.189,-3.304,1.537,1.709,-3.246,0.072,1.299,0.72,-0.723,-0.354,-0.152,0.337,-3.075,0.702
0.465,0.119,-3.184,-3.303,1.532,1.712,-3.244,0.06,1.29,0.714,-0.725,-0.354,-0.151,0.34,-3.075,0.694
0.466,0.117,-3.18,-3.297,1.531,1.708,-3.239,0.067,1.297,0.719,-0.723,-0.352,-0.149,0.34,-3.075,0.695
0.467,0.119,-3.188,-3.307,1.534,1.712,-3.247,0.072,1.3,0.719,-0.724,-0.354,-0.151,0.34,-3.081,0.704
0.468,0.124,-3.187,-3.311,1.531,1.718,-3.248,0.066,1.298,0.718,-0.723,-0.354,-0.151,0.341,-3.079,0.708
0.469,0.121,-3.191,-3.312,1.534,1.716,-3.251,0.067,1.296,0.715,-0.724,-0.354,-0.149,0.346,-3.088,0.709
0.47,0.117,-3.205,-3.322,1.544,1.72,-3.264,0.07,1.298,0.713,-0.726,-0.36,-0.154,0.347,-3.104,0.715
0.471,0.116,-3.207,-3.322,1.546,1.72,-3.264,0.071,1.298,0.714,-0.729,-0.361,-0.158,0.343,-3.104,0.717
0.472,0.121,-3.199,-3.32,1.538,1.721,-3.259,0.072,1.296,0.716,-0.727,-0.356,-0.153,0.344,-3.097,0.718
0.473,0.124,-3.193,-3.317,1.534,1.72,-3.255,0.076,1.302,0.72,-0.724,-0.357,-0.152,0.344,-3.092,0.714
0.474,0.122,-3.19,-3.312,1.534,1.718,-3.252,0.076,1.304,0.722,-0.723,-0.357,-0.151,0.344,-3.09,0.708
0.475,0.123,-3.189,-3.312,1.532,1.718,-3.251,0.072,1.298,0.717,-0.723,-0.357,-0.149,0.346,-3.092,0.712
0.476,0.12,-3.188,-3.308,1.534,1.714,-3.248,0.071,1.3,0.715,-0.725,-0.357,-0.151,0.345,-3.086,0.714
0.477,0.12,-3.177,-3.297,1.528,1.709,-3.237,0.066,1.296,0.713,-0.725,-0.357,-0.151,0.342,-3.071,0.707
0.478,0.123,-3.177,-3.3,1.527,1.712,-3.239,0.065,1.296,0.713,-0.726,-0.358,-0.149,0.345,-3.071,0.709
0.479,0.122,-3.179,-3.301,1.528,1.712,-3.24,0.062,1.29,0.712,-0.728,-0.361,-0.152,0.344,-3.073,0.714
0.48,0.126,-3.169,-3.295,1.522,1.71,-3.232,0.059,1.28,0.708,-0.73,-0.362,-0.152,0.34,-3.068,0.715
0.481,0.129,-3.166,-3.295,1.519,1.712,-3.23,0.059,1.288,0.71,-0.729,-0.359,-0.149,0.343,-3.065,0.715
0.482,0.114,-3.179,-3.292,1.532,1.704,-3.236,0.051,1.283,0.709,-0.736,-0.366,-0.157,0.34,-3.065,0.716
0.483,0.109,-3.184,-3.293,1.538,1.701,-3.239,0.053,1.278,0.705,-0.737,-0.367,-0.159,0.338,-3.064,0.721
0.484,0.122,-3.164,-3.287,1.521,1.705,-3.226,0.059,1.278,0.702,-0.734,-0.361,-0.15,0.34,-3.053,0.722
0.485,0.13,-3.162,-3.292,1.516,1.71,-3.227,0.052,1.274,0.701,-0.738,-0.363,-0.152,0.343,-3.054,0.728
0.486,0.128,-3.167,-3.296,1.52,1.712,-3.231,0.049,1.272,0.7,-0.738,-0.365,-0.154,0.344,-3.058,0.728
0.487,0.126,-3.168,-3.294,1.521,1.71,-3.231,0.051,1.277,0.703,-0.735,-0.363,-0.151,0.347,-3.061,0.728
0.488,0.133,-3.165,-3.297,1.516,1.715,-3.232,0.051,1.278,0.702,-0.734,-0.361,-0.147,0.352,-3.063,0.732
0.489,0.138,-3.159,-3.297,1.51,1.718,-3.228,0.051,1.278,0.703,-0.731,-0.357,-0.146,0.353,-3.058,0.731
0.49,0.141,-3.159,-3.301,1.509,1.722,-3.23,0.055,1.288,0.712,-0.727,-0.356,-0.144,0.357,-3.062,0.729
0.491,0.144,-3.156,-3.301,1.506,1.722,-3.229,0.054,1.287,0.711,-0.728,-0.356,-0.143,0.359,-3.064,0.729
0.492,0.143,-3.163,-3.307,1.51,1.724,-3.235,0.052,1.294,0.714,-0.725,-0.352,-0.141,0.364,-3.067,0.739
0.493,0.149,-3.159,-3.308,1.505,1.729,-3.233,0.059,1.297,0.716,-0.723,-0.351,-0.139,0.366,-3.066,0.739
0.494,0.147,-3.162,-3.308,1.507,1.728,-3.235,0.056,1.286,0.705,-0.734,-0.36,-0.148,0.361,-3.072,0.734
0.495,0.144,-3.171,-3.316,1.514,1.73,-3.244,0.051,1.284,0.704,-0.736,-0.363,-0.148,0.366,-3.082,0.741
0.496,0.148,-3.176,-3.324,1.514,1.736,-3.25,0.055,1.289,0.71,-0.732,-0.358,-0.145,0.373,-3.08,0.746
0.497,0.154,-3.18,-3.334,1.513,1.744,-3.257,0.051,1.288,0.706,-0.735,-0.362,-0.146,0.377,-3.082,0.75
0.498,0.156,-3.179,-3.335,1.512,1.746,-3.257,0.048,1.28,0.701,-0.738,-0.363,-0.144,0.377,-3.082,0.752
0.499,0.153,-3.188,-3.341,1.518,1.747,-3.265,0.048,1.28,0.699,-0.743,-0.368,-0.151,0.372,-3.083,0.76
0.5,0.155,-3.186,-3.341,1.516,1.748,-3.263,0.051,1.285,0.704,-0.74,-0.366,-0.149,0.376,-3.087,0.758
0.501,0.158,-3.186,-3.343,1.514,1.75,-3.264,0.049,1.284,0.703,-0.739,-0.364,-0.148,0.378,-3.091,0.758
0.502,0.158,-3.191,-3.348,1.516,1.752,-3.269,0.043,1.283,0.7,-0.742,-0.367,-0.15,0.381,-3.094,0.759
0.503,0.158,-3.185,-3.342,1.514,1.75,-3.264,0.053,1.289,0.708,-0.735,-0.36,-0.144,0.382,-3.089,0.753
0.504,0.161,-3.181,-3.342,1.51,1.752,-3.261,0.053,1.288,0.707,-0.737,-0.361,-0.146,0.381,-3.083,0.751
0.505,0.162,-3.179,-3.34,1.508,1.751,-3.259,0.051,1.288,0.706,-0.735,-0.358,-0.141,0.383,-3.078,0.752
0.506,0.159,-3.186,-3.344,1.514,1.752,-3.265,0.06,1.293,0.705,-0.737,-0.36,-0.143,0.381,-3.083,0.757
0.507,0.165,-3.192,-3.357,1.514,1.761,-3.275,0.055,1.288,0.703,-0.738,-0.363,-0.147,0.382,-3.097,0.753
0.508,0.174,-3.188,-3.361,1.507,1.768,-3.275,0.053,1.29,0.711,-0.729,-0.356,-0.141,0.386,-3.099,0.744
0.509,0.169,-3.193,-3.362,1.512,1.766,-3.278,0.059,1.31,0.718,-0.727,-0.357,-0.143,0.386,-3.106,0.743
0.51,0.164,-3.201,-3.365,1.518,1.765,-3.284,0.065,1.308,0.719,-0.728,-0.356,-0.142,0.387,-3.11,0.742
0.511,0.158,-3.209,-3.366,1.526,1.762,-3.288,0.065,1.294,0.71,-0.73,-0.354,-0.142,0.388,-3.118,0.743
0.512,0.156,-3.215,-3.37,1.53,1.762,-3.292,0.064,1.293,0.706,-0.732,-0.357,-0.145,0.386,-3.123,0.745
0.513,0.157,-3.209,-3.365,1.526,1.761,-3.287,0.068,1.298,0.711,-0.732,-0.359,-0.145,0.384,-3.115,0.738
0.514,0.153,-3.203,-3.356,1.525,1.754,-3.28,0.065,1.297,0.713,-0.729,-0.354,-0.141,0.386,-3.107,0.736
0.515,0.154,-3.197,-3.352,1.522,1.753,-3.275,0.069,1.298,0.716,-0.726,-0.353,-0.138,0.387,-3.098,0.74
0.516,0.142,-3.207,-3.349,1.532,1.746,-3.279,0.062,1.292,0.71,-0.733,-0.36,-0.145,0.381,-3.104,0.743
0.517,0.139,-3.207,-3.346,1.534,1.742,-3.276,0.064,1.286,0.704,-0.737,-0.363,-0.149,0.373,-3.095,0.736
0.518,0.15,-3.196,-3.346,1.522,1.748,-3.271,0.083,1.298,0.715,-0.731,-0.357,-0.145,0.372,-3.087,0.737
0.519,0.149,-3.196,-3.345,1.523,1.748,-3.27,0.082,1.3,0.717,-0.731,-0.359,-0.147,0.366,-3.09,0.741
0.52,0.139,-3.197,-3.336,1.529,1.738,-3.267,0.079,1.29,0.703,-0.742,-0.371,-0.156,0.354,-3.087,0.739
0.521,0.131,-3.204,-3.334,1.536,1.732,-3.269,0.078,1.285,0.698,-0.748,-0.376,-0.16,0.352,-3.088,0.747
0.522,0.132,-3.211,-3.342,1.54,1.737,-3.276,0.079,1.288,0.699,-0.75,-0.378,-0.164,0.349,-3.091,0.751
0.523,0.132,-3.216,-3.348,1.542,1.74,-3.282,0.081,1.286,0.697,-0.751,-0.379,-0.164,0.348,-3.094,0.752
0.524,0.131,-3.227,-3.357,1.548,1.744,-3.292,0.082,1.284,0.699,-0.75,-0.381,-0.166,0.349,-3.106,0.751
0.525,0.132,-3.23,-3.362,1.549,1.747,-3.296,0.089,1.294,0.703,-0.75,-0.381,-0.169,0.346,-3.116,0.739
0.526,0.13,-3.235,-3.364,1.552,1.746,-3.3,0.092,1.299,0.707,-0.746,-0.377,-0.165,0.351,-3.125,0.736
0.527,0.133,-3.237,-3.37,1.552,1.751,-3.304,0.096,1.305,0.712,-0.743,-0.373,-0.162,0.352,-3.127,0.735
0.528,0.135,-3.238,-3.373,1.552,1.754,-3.305,0.101,1.305,0.715,-0.74,-0.37,-0.16,0.354,-3.127,0.736
0.529,0.133,-3.249,-3.381,1.558,1.757,-3.316,0.108,1.315,0.72,-0.738,-0.369,-0.158,0.358,-3.142,0.739
0.53,0.138,-3.248,-3.386,1.555,1.762,-3.317,0.119,1.329,0.732,-0.731,-0.363,-0.154,0.361,-3.139,0.729
0.531,0.141,-3.251,-3.392,1.554,1.767,-3.321,0.117,1.329,0.733,-0.729,-0.364,-0.157,0.365,-3.143,0.737
0.532,0.138,-3.256,-3.394,1.56,1.766,-3.325,0.114,1.32,0.722,-0.738,-0.371,-0.161,0.361,-3.144,0.746
0.533,0.135,-3.261,-3.396,1.563,1.765,-3.329,0.11,1.312,0.716,-0.744,-0.378,-0.167,0.357,-3.142,0.75
0.534,0.132,-3.268,-3.401,1.569,1.766,-3.334,0.11,1.314,0.714,-0.749,-0.385,-0.174,0.353,-3.154,0.756
0.535,0.127,-3.269,-3.395,1.571,1.761,-3.332,0.118,1.315,0.716,-0.748,-0.384,-0.174,0.348,-3.154,0.749
0.536,0.121,-3.273,-3.394,1.575,1.758,-3.333,0.12,1.323,0.721,-0.742,-0.381,-0.173,0.351,-3.156,0.747
0.537,0.116,-3.272,-3.388,1.579,1.752,-3.33,0.124,1.323,0.724,-0.74,-0.379,-0.174,0.346,-3.157,0.736
0.538,0.109,-3.268,-3.377,1.579,1.743,-3.322,0.131,1.327,0.727,-0.738,-0.378,-0.173,0.343,-3.147,0.729
0.539,0.105,-3.268,-3.373,1.581,1.739,-3.32,0.134,1.332,0.732,-0.734,-0.375,-0.172,0.342,-3.144,0.726
0.54,0.106,-3.261,-3.368,1.577,1.736,-3.314,0.139,1.329,0.733,-0.731,-0.372,-0.172,0.338,-3.135,0.716
0.541,0.105,-3.256,-3.361,1.575,1.734,-3.308,0.142,1.331,0.732,-0.732,-0.372,-0.172,0.337,-3.131,0.71
0.542,0.101,-3.257,-3.358,1.578,1.73,-3.308,0.147,1.335,0.736,-0.729,-0.37,-0.173,0.334,-3.134,0.701
0.543,0.099,-3.264,-3.362,1.583,1.73,-3.312,0.15,1.341,0.737,-0.728,-0.368,-0.171,0.335,-3.133,0.702
0.544,0.096,-3.268,-3.364,1.586,1.73,-3.316,0.148,1.335,0.733,-0.732,-0.371,-0.176,0.33,-3.138,0.703
0.545,0.09,-3.27,-3.361,1.59,1.726,-3.315,0.149,1.334,0.735,-0.731,-0.372,-0.178,0.327,-3.144,0.701
0.546,0.086,-3.276,-3.363,1.595,1.724,-3.32,0.153,1.341,0.737,-0.729,-0.372,-0.177,0.329,-3.153,0.703
0.547,0.088,-3.275,-3.363,1.593,1.726,-3.318,0.157,1.347,0.742,-0.724,-0.369,-0.175,0.33,-3.147,0.701
0.548,0.091,-3.264,-3.356,1.587,1.723,-3.31,0.157,1.345,0.742,-0.72,-0.363,-0.169,0.333,-3.136,0.695
0.549,0.094,-3.263,-3.357,1.585,1.726,-3.309,0.16,1.347,0.746,-0.717,-0.361,-0.168,0.333,-3.14,0.689
0.55,0.097,-3.265,-3.363,1.585,1.73,-3.314,0.155,1.349,0.746,-0.718,-0.361,-0.168,0.334,-3.147,0.695
0.551,0.089,-3.271,-3.36,1.591,1.724,-3.316,0.159,1.344,0.742,-0.723,-0.366,-0.172,0.329,-3.151,0.696
0.552,0.086,-3.277,-3.362,1.595,1.724,-3.32,0.162,1.341,0.742,-0.723,-0.368,-0.173,0.327,-3.155,0.701
0.553,0.09,-3.28,-3.37,1.595,1.73,-3.325,0.157,1.336,0.737,-0.725,-0.369,-0.174,0.328,-3.154,0.708
0.554,0.094,-3.271,-3.365,1.589,1.73,-3.318,0.157,1.337,0.738,-0.724,-0.369,-0.173,0.326,-3.151,0.696
0.555,0.093,-3.272,-3.365,1.589,1.728,-3.318,0.158,1.341,0.74,-0.725,-0.369,-0.172,0.328,-3.155,0.695
0.556,0.086,-3.276,-3.362,1.595,1.724,-3.32,0.157,1.339,0.739,-0.729,-0.374,-0.178,0.322,-3.155,0.698
0.557,0.084,-3.273,-3.358,1.595,1.721,-3.316,0.158,1.337,0.737,-0.73,-0.375,-0.18,0.32,-3.151,0.695
0.558,0.082,-3.286,-3.368,1.603,1.724,-3.327,0.165,1.34,0.737,-0.731,-0.378,-0.184,0.319,-3.162,0.698
0.559,0.082,-3.288,-3.37,1.603,1.726,-3.329,0.161,1.336,0.735,-0.733,-0.383,-0.188,0.315,-3.164,0.699
0.56,0.078,-3.292,-3.371,1.607,1.724,-3.332,0.156,1.338,0.736,-0.733,-0.383,-0.188,0.318,-3.157,0.698
0.561,0.071,-3.299,-3.37,1.613,1.721,-3.334,0.156,1.336,0.737,-0.733,-0.384,-0.191,0.316,-3.159,0.698
0.562,0.081,-3.283,-3.364,1.601,1.722,-3.323,0.16,1.335,0.735,-0.735,-0.382,-0.189,0.313,-3.154,0.696
0.563,0.087,-3.276,-3.362,1.594,1.724,-3.319,0.165,1.339,0.735,-0.737,-0.382,-0.185,0.314,-3.15,0.696
0.564,0.081,-3.284,-3.365,1.602,1.722,-3.324,0.167,1.337,0.733,-0.737,-0.383,-0.186,0.313,-3.159,0.699
0.565,0.074,-3.288,-3.361,1.607,1.718,-3.325,0.164,1.341,0.74,-0.732,-0.383,-0.184,0.316,-3.16,0.698
0.566,0.074,-3.286,-3.36,1.606,1.717,-3.323,0.167,1.341,0.738,-0.732,-0.384,-0.185,0.315,-3.163,0.699
0.567,0.075,-3.288,-3.364,1.607,1.72,-3.326,0.165,1.337,0.736,-0.732,-0.382,-0.185,0.313,-3.163,0.699
0.568,0.078,-3.284,-3.362,1.603,1.72,-3.324,0.163,1.337,0.74,-0.73,-0.378,-0.181,0.316,-3.158,0.695
0.569,0.079,-3.281,-3.36,1.601,1.72,-3.321,0.171,1.343,0.74,-0.73,-0.377,-0.182,0.315,-3.154,0.694
0.57,0.074,-3.28,-3.354,1.603,1.714,-3.317,0.171,1.348,0.742,-0.728,-0.377,-0.18,0.314,-3.146,0.695
0.571,0.073,-3.284,-3.357,1.605,1.715,-3.321,0.173,1.347,0.743,-0.729,-0.379,-0.184,0.313,-3.15,0.693
0.572,0.079,-3.28,-3.358,1.601,1.718,-3.319,0.169,1.339,0.743,-0.727,-0.376,-0.183,0.314,-3.151,0.69
0.573,0.079,-3.279,-3.357,1.6,1.718,-3.317,0.166,1.333,0.735,-0.733,-0.377,-0.181,0.317,-3.154,0.692
0.574,0.077,-3.285,-3.362,1.604,1.72,-3.324,0.168,1.338,0.737,-0.735,-0.381,-0.186,0.316,-3.163,0.69
0.575,0.077,-3.282,-3.359,1.602,1.718,-3.321,0.17,1.347,0.747,-0.728,-0.377,-0.183,0.319,-3.162,0.685
0.576,0.073,-3.283,-3.356,1.605,1.714,-3.319,0.169,1.342,0.742,-0.733,-0.379,-0.186,0.317,-3.16,0.688
0.577,0.069,-3.284,-3.353,1.607,1.711,-3.318,0.168,1.335,0.739,-0.737,-0.382,-0.19,0.312,-3.157,0.685
0.578,0.069,-3.287,-3.356,1.609,1.712,-3.321,0.171,1.336,0.74,-0.737,-0.383,-0.19,0.313,-3.16,0.686
0.579,0.073,-3.284,-3.357,1.605,1.714,-3.32,0.169,1.333,0.736,-0.738,-0.384,-0.19,0.315,-3.155,0.686
0.58,0.074,-3.279,-3.353,1.602,1.714,-3.316,0.171,1.343,0.741,-0.732,-0.378,-0.185,0.318,-3.151,0.685
0.581,0.075,-3.28,-3.356,1.603,1.715,-3.317,0.171,1.343,0.742,-0.734,-0.38,-0.186,0.317,-3.155,0.686
0.582,0.071,-3.28,-3.35,1.605,1.71,-3.315,0.17,1.338,0.739,-0.736,-0.383,-0.188,0.315,-3.148,0.686
0.583,0.066,-3.281,-3.346,1.608,1.706,-3.313,0.172,1.339,0.74,-0.734,-0.38,-0.187,0.314,-3.138,0.694
0.584,0.068,-3.284,-3.351,1.608,1.71,-3.317,0.169,1.337,0.737,-0.734,-0.379,-0.186,0.314,-3.14,0.688
0.585,0.067,-3.287,-3.353,1.61,1.71,-3.321,0.174,1.341,0.736,-0.734,-0.379,-0.185,0.314,-3.148,0.684
0.586,0.067,-3.285,-3.352,1.609,1.71,-3.318,0.175,1.344,0.738,-0.733,-0.378,-0.184,0.312,-3.148,0.686
0.587,0.074,-3.282,-3.356,1.604,1.715,-3.319,0.172,1.344,0.741,-0.729,-0.376,-0.181,0.317,-3.15,0.688
0.588,0.056,-3.297,-3.353,1.621,1.704,-3.325,0.165,1.333,0.732,-0.738,-0.385,-0.19,0.312,-3.147,0.688
0.589,0.038,-3.309,-3.346,1.635,1.692,-3.328,0.16,1.327,0.726,-0.745,-0.391,-0.197,0.307,-3.156,0.683
0.59,0.074,-3.275,-3.349,1.6,1.712,-3.312,0.178,1.345,0.745,-0.728,-0.373,-0.18,0.315,-3.155,0.676
0.591,0.09,-3.256,-3.346,1.583,1.718,-3.301,0.186,1.353,0.751,-0.721,-0.365,-0.174,0.316,-3.144,0.674
0.592,0.079,-3.269,-3.348,1.595,1.714,-3.308,0.184,1.351,0.748,-0.726,-0.371,-0.18,0.313,-3.146,0.682
0.593,0.081,-3.272,-3.353,1.595,1.716,-3.312,0.184,1.353,0.75,-0.725,-0.371,-0.179,0.314,-3.148,0.686
0.594,0.07,-3.278,-3.348,1.604,1.709,-3.313,0.178,1.349,0.748,-0.728,-0.372,-0.185,0.311,-3.156,0.68
0.595,0.069,-3.276,-3.345,1.604,1.707,-3.311,0.182,1.352,0.751,-0.723,-0.368,-0.18,0.314,-3.152,0.673
0.596,0.071,-3.272,-3.344,1.6,1.708,-3.308,0.184,1.355,0.756,-0.716,-0.364,-0.178,0.314,-3.152,0.668
0.597,0.071,-3.272,-3.343,1.601,1.707,-3.308,0.185,1.357,0.762,-0.713,-0.363,-0.182,0.313,-3.158,0.664
0.598,0.071,-3.276,-3.347,1.603,1.709,-3.312,0.193,1.368,0.769,-0.706,-0.358,-0.179,0.316,-3.154,0.66
0.599,0.073,-3.274,-3.347,1.601,1.71,-3.311,0.197,1.376,0.781,-0.694,-0.349,-0.175,0.318,-3.152,0.651
0.6,0.073,-3.276,-3.349,1.601,1.712,-3.312,0.203,1.389,0.798,-0.677,-0.337,-0.172,0.323,-3.156,0.637
0.601,0.066,-3.279,-3.345,1.607,1.705,-3.312,0.208,1.399,0.809,-0.666,-0.326,-0.17,0.325,-3.156,0.626
0.602,0.062,-3.276,-3.337,1.607,1.7,-3.307,0.214,1.409,0.824,-0.653,-0.317,-0.17,0.326,-3.153,0.613
0.603,0.056,-3.28,-3.337,1.612,1.696,-3.308,0.228,1.423,0.837,-0.64,-0.308,-0.167,0.328,-3.158,0.602
0.604,0.059,-3.275,-3.334,1.607,1.697,-3.304,0.224,1.426,0.845,-0.628,-0.295,-0.157,0.338,-3.154,0.597
0.605,0.067,-3.26,-3.328,1.597,1.697,-3.294,0.213,1.421,0.846,-0.616,-0.279,-0.144,0.35,-3.149,0.589
0.606,0.07,-3.243,-3.313,1.587,1.692,-3.279,0.212,1.42,0.847,-0.606,-0.261,-0.126,0.364,-3.136,0.583
0.607,0.078,-3.227,-3.305,1.574,1.692,-3.265,0.199,1.411,0.847,-0.599,-0.248,-0.112,0.378,-3.124,0.585
0.608,0.085,-3.212,-3.297,1.564,1.691,-3.255,0.188,1.406,0.849,-0.583,-0.224,-0.09,0.397,-3.111,0.586
0.609,0.097,-3.191,-3.288,1.547,1.692,-3.24,0.181,1.411,0.87,-0.548,-0.181,-0.055,0.43,-3.095,0.577
0.61,0.112,-3.174,-3.285,1.531,1.698,-3.229,0.179,1.425,0.899,-0.507,-0.139,-0.021,0.465,-3.091,0.555
0.611,0.125,-3.161,-3.286,1.518,1.706,-3.224,0.181,1.448,0.94,-0.452,-0.082,0.022,0.506,-3.089,0.524
0.612,0.139,-3.15,-3.288,1.505,1.714,-3.219,0.175,1.468,0.978,-0.402,-0.032,0.065,0.547,-3.089,0.5
0.613,0.166,-3.128,-3.293,1.481,1.73,-3.211,0.164,1.47,0.998,-0.367,0.013,0.106,0.59,-3.067,0.5
0.614,0.19,-3.106,-3.296,1.458,1.742,-3.201,0.148,1.47,1.013,-0.335,0.059,0.151,0.634,-3.055,0.498
0.615,0.211,-3.084,-3.296,1.437,1.754,-3.191,0.137,1.476,1.04,-0.292,0.11,0.2,0.681,-3.049,0.474
0.616,0.235,-3.067,-3.302,1.415,1.768,-3.184,0.126,1.494,1.079,-0.237,0.168,0.249,0.732,-3.031,0.458
0.617,0.269,-3.035,-3.304,1.383,1.787,-3.17,0.109,1.512,1.129,-0.171,0.24,0.311,0.795,-3.011,0.436
0.618,0.316,-2.994,-3.31,1.339,1.813,-3.152,0.078,1.511,1.158,-0.117,0.309,0.382,0.871,-2.991,0.425
0.619,0.355,-2.95,-3.305,1.297,1.831,-3.127,0.031,1.483,1.153,-0.095,0.357,0.449,0.937,-2.959,0.438
0.62,0.4,-2.896,-3.296,1.248,1.848,-3.095,-0.018,1.44,1.131,-0.089,0.398,0.518,1.002,-2.921,0.455
0.621,0.431,-2.855,-3.286,1.212,1.859,-3.071,-0.06,1.396,1.093,-0.105,0.418,0.572,1.05,-2.899,0.485
0.622,0.463,-2.807,-3.269,1.172,1.866,-3.038,-0.107,1.346,1.038,-0.142,0.425,0.624,1.091,-2.862,0.518
0.623,0.499,-2.759,-3.258,1.129,1.879,-3.009,-0.161,1.276,0.968,-0.185,0.429,0.684,1.139,-2.82,0.56
0.624,0.532,-2.724,-3.257,1.096,1.895,-2.991,-0.208,1.21,0.897,-0.235,0.431,0.743,1.187,-2.793,0.611
0.625,0.579,-2.693,-3.272,1.057,1.925,-2.982,-0.254,1.159,0.84,-0.276,0.436,0.799,1.238,-2.787,0.657
0.626,0.62,-2.668,-3.288,1.024,1.954,-2.978,-0.304,1.1,0.772,-0.325,0.427,0.844,1.278,-2.771,0.716
0.627,0.649,-2.639,-3.288,0.995,1.968,-2.963,-0.35,1.032,0.686,-0.4,0.4,0.878,1.302,-2.738,0.785
0.628,0.677,-2.607,-3.284,0.965,1.98,-2.946,-0.398,0.965,0.605,-0.472,0.375,0.909,1.323,-2.712,0.85
0.629,0.711,-2.575,-3.287,0.932,1.999,-2.931,-0.451,0.899,0.525,-0.534,0.362,0.955,1.362,-2.695,0.913
0.63,0.743,-2.537,-3.28,0.896,2.012,-2.909,-0.499,0.833,0.449,-0.59,0.352,1.002,1.403,-2.667,0.97
0.631,0.785,-2.493,-3.278,0.854,2.032,-2.885,-0.554,0.767,0.381,-0.644,0.343,1.051,1.447,-2.635,1.022
0.632,0.814,-2.453,-3.267,0.819,2.041,-2.86,-0.6,0.71,0.311,-0.707,0.317,1.085,1.476,-2.606,1.073
0.633,0.811,-2.421,-3.233,0.804,2.022,-2.828,-0.629,0.65,0.224,-0.795,0.254,1.073,1.457,-2.579,1.123
0.634,0.812,-2.389,-3.201,0.788,2.006,-2.795,-0.664,0.58,0.133,-0.889,0.184,1.056,1.437,-2.548,1.18
0.635,0.821,-2.36,-3.18,0.769,2.001,-2.77,-0.704,0.523,0.061,-0.965,0.129,1.05,1.433,-2.523,1.232
0.636,0.829,-2.318,-3.147,0.745,1.988,-2.733,-0.736,0.475,-0.002,-1.038,0.066,1.026,1.415,-2.494,1.27
0.637,0.819,-2.291,-3.11,0.736,1.964,-2.7,-0.77,0.408,-0.096,-1.147,-0.041,0.961,1.361,-2.467,1.335
0.638,0.804,-2.284,-3.089,0.74,1.947,-2.686,-0.801,0.351,-0.188,-1.262,-0.159,0.881,1.296,-2.458,1.4
0.639,0.786,-2.258,-3.045,0.736,1.916,-2.651,-0.821,0.301,-0.264,-1.365,-0.277,0.788,1.218,-2.431,1.437
0.64,0.742,-2.232,-2.974,0.746,1.858,-2.604,-0.828,0.249,-0.352,-1.488,-0.423,0.665,1.102,-2.393,1.476
0.641,0.7,-2.24,-2.94,0.77,1.82,-2.59,-0.818,0.218,-0.416,-1.595,-0.565,0.535,0.981,-2.378,1.512
0.642,0.661,-2.35,-3.011,0.845,1.837,-2.681,-0.765,0.243,-0.432,-1.662,-0.688,0.399,0.859,-2.458,1.541
0.643,0.613,-2.521,-3.134,0.954,1.873,-2.827,-0.684,0.299,-0.425,-1.714,-0.799,0.259,0.726,-2.578,1.558
0.644,0.569,-2.654,-3.223,1.042,1.895,-2.938,-0.639,0.304,-0.457,-1.794,-0.926,0.111,0.596,-2.668,1.593
0.645,0.53,-2.77,-3.3,1.119,1.915,-3.035,-0.601,0.311,-0.492,-1.875,-1.056,-0.041,0.465,-2.757,1.631
0.646,0.51,-2.865,-3.375,1.177,1.942,-3.12,-0.552,0.342,-0.499,-1.927,-1.156,-0.158,0.359,-2.825,1.659
0.647,0.483,-2.962,-3.446,1.24,1.965,-3.204,-0.498,0.382,-0.489,-1.957,-1.226,-0.245,0.282,-2.897,1.673
0.648,0.456,-3.072,-3.527,1.308,1.992,-3.3,-0.44,0.435,-0.461,-1.964,-1.275,-0.319,0.219,-2.98,1.674
0.649,0.428,-3.171,-3.599,1.371,2.014,-3.385,-0.384,0.49,-0.428,-1.968,-1.321,-0.393,0.158,-3.053,1.671
0.65,0.394,-3.245,-3.639,1.426,2.016,-3.442,-0.334,0.536,-0.399,-1.964,-1.348,-0.454,0.105,-3.106,1.655
0.651,0.358,-3.279,-3.636,1.46,1.998,-3.458,-0.294,0.568,-0.373,-1.95,-1.355,-0.493,0.066,-3.127,1.632
0.652,0.315,-3.292,-3.606,1.488,1.96,-3.449,-0.255,0.581,-0.361,-1.948,-1.375,-0.543,0.008,-3.119,1.607
0.653,0.284,-3.308,-3.592,1.512,1.938,-3.45,-0.231,0.594,-0.348,-1.944,-1.39,-0.585,-0.035,-3.12,1.591
0.654,0.255,-3.337,-3.592,1.542,1.923,-3.465,-0.202,0.626,-0.32,-1.929,-1.397,-0.622,-0.074,-3.144,1.567
0.655,0.23,-3.361,-3.59,1.565,1.909,-3.475,-0.167,0.648,-0.3,-1.917,-1.403,-0.655,-0.113,-3.15,1.537
0.656,0.205,-3.386,-3.591,1.591,1.898,-3.489,-0.142,0.667,-0.277,-1.895,-1.396,-0.674,-0.136,-3.165,1.512
0.657,0.165,-3.43,-3.595,1.633,1.879,-3.513,-0.097,0.707,-0.233,-1.856,-1.375,-0.693,-0.165,-3.194,1.48
0.658,0.13,-3.476,-3.606,1.673,1.867,-3.541,-0.042,0.769,-0.169,-1.798,-1.338,-0.699,-0.178,-3.217,1.433
0.659,0.099,-3.509,-3.608,1.705,1.853,-3.558,-0.001,0.821,-0.108,-1.742,-1.298,-0.7,-0.185,-3.239,1.383
0.66,0.074,-3.517,-3.591,1.721,1.833,-3.554,0.03,0.853,-0.07,-1.704,-1.278,-0.714,-0.204,-3.244,1.343
0.661,0.053,-3.503,-3.556,1.725,1.804,-3.53,0.048,0.869,-0.042,-1.673,-1.255,-0.716,-0.213,-3.225,1.312
0.662,0.032,-3.477,-3.507,1.722,1.77,-3.492,0.061,0.886,-0.009,-1.636,-1.224,-0.711,-0.218,-3.195,1.276
0.663,0.018,-3.458,-3.474,1.72,1.746,-3.466,0.07,0.906,0.022,-1.602,-1.198,-0.708,-0.214,-3.183,1.248
0.664,0.009,-3.45,-3.458,1.72,1.733,-3.454,0.072,0.926,0.052,-1.568,-1.169,-0.698,-0.203,-3.176,1.225
0.665,0.002,-3.432,-3.433,1.715,1.718,-3.432,0.079,0.959,0.095,-1.522,-1.131,-0.681,-0.186,-3.162,1.198
0.666,-0.005,-3.404,-3.398,1.705,1.696,-3.401,0.085,0.983,0.134,-1.473,-1.085,-0.654,-0.162,-3.142,1.167
0.667,-0.011,-3.382,-3.372,1.696,1.681,-3.377,0.086,1.008,0.175,-1.425,-1.044,-0.631,-0.139,-3.13,1.131
0.668,-0.014,-3.371,-3.357,1.692,1.671,-3.364,0.095,1.035,0.211,-1.387,-1.011,-0.618,-0.125,-3.12,1.107
0.669,-0.022,-3.355,-3.333,1.688,1.655,-3.344,0.1,1.055,0.244,-1.352,-0.98,-0.607,-0.115,-3.1,1.084
0.67,-0.031,-3.336,-3.305,1.683,1.637,-3.321,0.105,1.074,0.277,-1.315,-0.948,-0.594,-0.104,-3.092,1.05
0.671,-0.03,-3.319,-3.288,1.675,1.629,-3.304,0.107,1.094,0.306,-1.277,-0.917,-0.577,-0.088,-3.087,1.024
0.672,-0.023,-3.304,-3.28,1.663,1.629,-3.292,0.1,1.104,0.333,-1.242,-0.885,-0.556,-0.066,-3.077,1.01
0.673,-0.014,-3.287,-3.273,1.651,1.629,-3.28,0.099,1.123,0.366,-1.202,-0.847,-0.531,-0.041,-3.064,0.984
0.674,-0.009,-3.277,-3.269,1.643,1.63,-3.273,0.103,1.149,0.406,-1.157,-0.804,-0.502,-0.015,-3.066,0.953
0.675,-0.013,-3.276,-3.263,1.645,1.625,-3.27,0.107,1.163,0.432,-1.123,-0.774,-0.485,0.004,-3.075,0.934
0.676,-0.015,-3.276,-3.261,1.645,1.623,-3.269,0.11,1.177,0.454,-1.101,-0.753,-0.476,0.013,-3.079,0.914
0.677,-0.011,-3.275,-3.263,1.643,1.626,-3.268,0.11,1.185,0.471,-1.075,-0.729,-0.461,0.032,-3.075,0.898
0.678,-0.004,-3.26,-3.256,1.632,1.625,-3.258,0.105,1.187,0.489,-1.046,-0.698,-0.437,0.055,-3.061,0.876
0.679,0.009,-3.251,-3.26,1.621,1.634,-3.255,0.109,1.201,0.516,-1.012,-0.663,-0.413,0.08,-3.062,0.856
0.68,0.013,-3.254,-3.267,1.621,1.64,-3.26,0.119,1.22,0.544,-0.982,-0.635,-0.392,0.101,-3.074,0.844
0.681,0.015,-3.253,-3.268,1.619,1.642,-3.26,0.121,1.226,0.564,-0.956,-0.612,-0.377,0.116,-3.074,0.826
0.682,0.015,-3.255,-3.269,1.62,1.642,-3.262,0.126,1.234,0.579,-0.938,-0.594,-0.364,0.128,-3.078,0.808
0.683,0.015,-3.253,-3.268,1.619,1.641,-3.26,0.138,1.25,0.598,-0.916,-0.574,-0.35,0.137,-3.082,0.787
0.684,0.018,-3.252,-3.27,1.617,1.644,-3.261,0.142,1.259,0.614,-0.895,-0.553,-0.339,0.148,-3.084,0.773
0.685,0.021,-3.241,-3.263,1.609,1.642,-3.252,0.147,1.266,0.628,-0.879,-0.538,-0.328,0.157,-3.08,0.751
0.686,0.026,-3.236,-3.261,1.605,1.644,-3.248,0.157,1.278,0.643,-0.861,-0.521,-0.314,0.168,-3.084,0.736
0.687,0.021,-3.252,-3.273,1.615,1.647,-3.262,0.152,1.28,0.65,-0.848,-0.509,-0.306,0.179,-3.098,0.736
0.688,0.029,-3.25,-3.279,1.611,1.653,-3.264,0.157,1.288,0.666,-0.833,-0.494,-0.295,0.191,-3.095,0.727
0.689,0.033,-3.252,-3.284,1.609,1.659,-3.268,0.162,1.302,0.682,-0.814,-0.479,-0.284,0.201,-3.099,0.722
0.69,0.029,-3.258,-3.287,1.614,1.658,-3.272,0.172,1.312,0.696,-0.8,-0.467,-0.277,0.209,-3.107,0.708
0.691,0.033,-3.26,-3.292,1.614,1.662,-3.276,0.183,1.327,0.711,-0.785,-0.455,-0.268,0.222,-3.112,0.697
0.692,0.035,-3.264,-3.3,1.615,1.667,-3.282,0.179,1.328,0.717,-0.779,-0.448,-0.263,0.225,-3.119,0.697
0.693,0.034,-3.268,-3.301,1.617,1.667,-3.284,0.183,1.332,0.722,-0.775,-0.448,-0.265,0.224,-3.12,0.698
0.694,0.031,-3.273,-3.304,1.621,1.667,-3.288,0.19,1.343,0.729,-0.771,-0.445,-0.265,0.227,-3.125,0.697
0.695,0.034,-3.271,-3.304,1.619,1.669,-3.288,0.19,1.343,0.73,-0.767,-0.439,-0.261,0.23,-3.123,0.689
0.696,0.034,-3.268,-3.301,1.617,1.667,-3.284,0.189,1.341,0.735,-0.763,-0.435,-0.258,0.232,-3.119,0.684
0.697,0.034,-3.272,-3.305,1.619,1.669,-3.288,0.187,1.341,0.739,-0.76,-0.432,-0.259,0.236,-3.123,0.685
0.698,0.036,-3.275,-3.311,1.619,1.674,-3.293,0.188,1.341,0.739,-0.756,-0.43,-0.257,0.239,-3.13,0.681
0.699,0.039,-3.272,-3.312,1.617,1.675,-3.292,0.188,1.343,0.741,-0.753,-0.428,-0.255,0.24,-3.131,0.674
0.7,0.04,-3.273,-3.312,1.617,1.677,-3.293,0.188,1.347,0.745,-0.752,-0.426,-0.255,0.241,-3.13,0.674
0.701,0.032,-3.276,-3.308,1.622,1.669,-3.292,0.191,1.35,0.748,-0.749,-0.422,-0.254,0.24,-3.126,0.672
0.702,0.026,-3.276,-3.301,1.625,1.663,-3.288,0.192,1.351,0.75,-0.743,-0.416,-0.25,0.244,-3.12,0.669
0.703,0.032,-3.277,-3.308,1.623,1.67,-3.293,0.193,1.354,0.752,-0.741,-0.414,-0.248,0.246,-3.122,0.671
0.704,0.032,-3.278,-3.31,1.623,1.671,-3.294,0.193,1.354,0.752,-0.74,-0.415,-0.249,0.245,-3.123,0.666
0.705,0.025,-3.283,-3.308,1.629,1.667,-3.295,0.194,1.355,0.76,-0.733,-0.411,-0.246,0.247,-3.13,0.662
0.706,0.027,-3.281,-3.308,1.627,1.667,-3.295,0.2,1.359,0.763,-0.729,-0.407,-0.244,0.247,-3.13,0.659
0.707,0.03,-3.277,-3.308,1.623,1.669,-3.293,0.197,1.357,0.761,-0.729,-0.407,-0.245,0.248,-3.134,0.659
0.708,0.03,-3.28,-3.311,1.625,1.671,-3.296,0.197,1.36,0.766,-0.726,-0.406,-0.243,0.249,-3.143,0.659
0.709,0.034,-3.279,-3.312,1.623,1.673,-3.296,0.2,1.363,0.768,-0.722,-0.403,-0.241,0.252,-3.143,0.656
0.71,0.032,-3.28,-3.311,1.624,1.671,-3.295,0.203,1.365,0.77,-0.718,-0.398,-0.237,0.254,-3.138,0.652
0.711,0.033,-3.275,-3.307,1.621,1.669,-3.291,0.207,1.369,0.775,-0.714,-0.394,-0.235,0.254,-3.134,0.649
0.712,0.033,-3.271,-3.304,1.619,1.669,-3.288,0.205,1.371,0.775,-0.711,-0.392,-0.234,0.255,-3.132,0.652
0.713,0.034,-3.272,-3.305,1.619,1.669,-3.288,0.205,1.373,0.777,-0.71,-0.391,-0.233,0.257,-3.135,0.652
0.714,0.038,-3.266,-3.304,1.613,1.671,-3.285,0.206,1.373,0.779,-0.709,-0.388,-0.231,0.261,-3.13,0.65
0.715,0.038,-3.266,-3.304,1.613,1.671,-3.285,0.205,1.373,0.781,-0.706,-0.387,-0.23,0.261,-3.131,0.647
0.716,0.038,-3.271,-3.309,1.617,1.674,-3.291,0.205,1.373,0.782,-0.706,-0.387,-0.229,0.264,-3.138,0.647
0.717,0.037,-3.269,-3.308,1.616,1.673,-3.288,0.203,1.373,0.783,-0.705,-0.385,-0.227,0.265,-3.131,0.648
0.718,0.033,-3.271,-3.303,1.619,1.668,-3.287,0.201,1.374,0.784,-0.705,-0.384,-0.229,0.263,-3.131,0.645
0.719,0.036,-3.267,-3.303,1.615,1.669,-3.284,0.205,1.373,0.785,-0.704,-0.383,-0.225,0.264,-3.13,0.639
0.72,0.042,-3.26,-3.301,1.609,1.672,-3.28,0.203,1.372,0.788,-0.698,-0.379,-0.222,0.267,-3.125,0.638
0.721,0.042,-3.263,-3.304,1.611,1.673,-3.284,0.203,1.375,0.788,-0.698,-0.378,-0.221,0.27,-3.127,0.644
0.722,0.04,-3.269,-3.309,1.615,1.675,-3.289,0.206,1.378,0.788,-0.697,-0.378,-0.222,0.27,-3.134,0.642
0.723,0.031,-3.277,-3.308,1.623,1.669,-3.293,0.201,1.373,0.785,-0.701,-0.38,-0.226,0.269,-3.141,0.639
0.724,0.037,-3.272,-3.308,1.617,1.673,-3.289,0.196,1.376,0.787,-0.696,-0.376,-0.218,0.276,-3.136,0.639
0.725,0.049,-3.257,-3.307,1.605,1.677,-3.282,0.205,1.382,0.793,-0.69,-0.371,-0.215,0.276,-3.137,0.637
0.726,0.054,-3.256,-3.309,1.601,1.681,-3.283,0.209,1.385,0.794,-0.691,-0.369,-0.215,0.275,-3.135,0.636
0.727,0.052,-3.26,-3.312,1.603,1.683,-3.286,0.203,1.381,0.795,-0.689,-0.371,-0.213,0.278,-3.135,0.639
0.728,0.049,-3.261,-3.309,1.607,1.679,-3.285,0.203,1.377,0.79,-0.69,-0.371,-0.215,0.277,-3.138,0.641
0.729,0.051,-3.259,-3.31,1.603,1.681,-3.284,0.207,1.389,0.796,-0.685,-0.366,-0.211,0.281,-3.13,0.639
0.73,0.05,-3.26,-3.309,1.605,1.679,-3.284,0.206,1.385,0.798,-0.685,-0.366,-0.214,0.28,-3.136,0.64
0.731,0.053,-3.253,-3.307,1.6,1.681,-3.28,0.206,1.384,0.797,-0.685,-0.366,-0.214,0.278,-3.131,0.64
0.732,0.054,-3.259,-3.313,1.602,1.684,-3.287,0.207,1.39,0.801,-0.684,-0.367,-0.213,0.28,-3.136,0.639
0.733,0.057,-3.26,-3.317,1.601,1.687,-3.288,0.202,1.382,0.797,-0.682,-0.364,-0.212,0.285,-3.143,0.64
0.734,0.051,-3.259,-3.309,1.604,1.68,-3.284,0.202,1.381,0.794,-0.682,-0.363,-0.213,0.283,-3.132,0.643
0.735,0.05,-3.26,-3.308,1.605,1.679,-3.284,0.201,1.381,0.795,-0.684,-0.364,-0.213,0.282,-3.131,0.647
0.736,0.059,-3.249,-3.308,1.595,1.684,-3.279,0.2,1.381,0.798,-0.682,-0.362,-0.21,0.285,-3.125,0.638
0.737,0.057,-3.248,-3.304,1.596,1.681,-3.276,0.201,1.377,0.796,-0.684,-0.363,-0.211,0.284,-3.124,0.634
0.738,0.053,-3.251,-3.304,1.599,1.679,-3.278,0.201,1.381,0.8,-0.681,-0.36,-0.209,0.286,-3.131,0.631
0.739,0.051,-3.251,-3.301,1.6,1.676,-3.276,0.203,1.383,0.802,-0.68,-0.359,-0.21,0.284,-3.128,0.631
0.74,0.05,-3.252,-3.301,1.601,1.675,-3.276,0.2,1.382,0.8,-0.681,-0.359,-0.21,0.287,-3.127,0.636
0.741,0.048,-3.254,-3.302,1.603,1.675,-3.278,0.203,1.386,0.802,-0.682,-0.362,-0.212,0.285,-3.134,0.633
0.742,0.046,-3.251,-3.296,1.602,1.671,-3.273,0.204,1.383,0.802,-0.679,-0.356,-0.208,0.286,-3.128,0.631
0.743,0.037,-3.26,-3.297,1.611,1.667,-3.278,0.198,1.377,0.799,-0.681,-0.358,-0.21,0.287,-3.131,0.631
0.744,0.04,-3.256,-3.296,1.609,1.668,-3.276,0.193,1.373,0.796,-0.684,-0.361,-0.213,0.283,-3.125,0.636
0.745,0.054,-3.242,-3.296,1.593,1.675,-3.269,0.198,1.377,0.8,-0.676,-0.352,-0.204,0.287,-3.108,0.636
0.746,0.056,-3.241,-3.296,1.593,1.676,-3.269,0.203,1.383,0.806,-0.67,-0.349,-0.203,0.29,-3.118,0.629
0.747,0.054,-3.246,-3.3,1.595,1.677,-3.273,0.202,1.383,0.808,-0.67,-0.349,-0.204,0.29,-3.124,0.631
0.748,0.057,-3.247,-3.303,1.595,1.679,-3.275,0.201,1.379,0.804,-0.673,-0.35,-0.205,0.287,-3.12,0.634
0.749,0.06,-3.244,-3.304,1.591,1.683,-3.275,0.199,1.379,0.806,-0.672,-0.351,-0.204,0.29,-3.122,0.633
0.75,0.053,-3.249,-3.303,1.598,1.678,-3.276,0.201,1.383,0.808,-0.671,-0.352,-0.206,0.292,-3.131,0.627
0.751,0.048,-3.25,-3.297,1.601,1.672,-3.273,0.2,1.383,0.804,-0.672,-0.351,-0.205,0.289,-3.129,0.625
0.752,0.048,-3.252,-3.3,1.602,1.674,-3.276,0.198,1.383,0.808,-0.671,-0.35,-0.204,0.291,-3.132,0.629
0.753,0.042,-3.253,-3.295,1.606,1.669,-3.274,0.193,1.376,0.802,-0.673,-0.35,-0.204,0.291,-3.127,0.634
0.754,0.046,-3.248,-3.294,1.601,1.67,-3.271,0.19,1.374,0.801,-0.672,-0.347,-0.202,0.294,-3.119,0.633
0.755,0.057,-3.241,-3.297,1.593,1.677,-3.269,0.197,1.381,0.808,-0.667,-0.347,-0.202,0.294,-3.125,0.63
0.756,0.059,-3.236,-3.295,1.589,1.677,-3.266,0.197,1.383,0.807,-0.667,-0.346,-0.2,0.296,-3.115,0.639
0.757,0.059,-3.239,-3.298,1.59,1.679,-3.268,0.195,1.385,0.811,-0.664,-0.343,-0.2,0.297,-3.117,0.633
0.758,0.058,-3.243,-3.301,1.593,1.679,-3.272,0.195,1.387,0.811,-0.666,-0.344,-0.203,0.296,-3.127,0.627
0.759,0.056,-3.245,-3.3,1.595,1.678,-3.272,0.195,1.384,0.808,-0.668,-0.345,-0.204,0.297,-3.124,0.629
0.76,0.055,-3.244,-3.299,1.594,1.677,-3.271,0.193,1.381,0.808,-0.667,-0.344,-0.2,0.3,-3.123,0.627
0.761,0.052,-3.242,-3.295,1.595,1.673,-3.268,0.192,1.377,0.808,-0.668,-0.344,-0.201,0.298,-3.114,0.627
0.762,0.049,-3.242,-3.291,1.597,1.67,-3.267,0.194,1.379,0.808,-0.669,-0.344,-0.203,0.296,-3.108,0.629
0.763,0.052,-3.242,-3.294,1.595,1.673,-3.268,0.193,1.381,0.811,-0.666,-0.342,-0.202,0.299,-3.113,0.63
0.764,0.057,-3.241,-3.297,1.593,1.677,-3.269,0.194,1.383,0.818,-0.658,-0.339,-0.2,0.301,-3.114,0.625
0.765,0.056,-3.239,-3.295,1.591,1.675,-3.267,0.191,1.381,0.812,-0.663,-0.34,-0.201,0.3,-3.117,0.625
0.766,0.053,-3.24,-3.292,1.593,1.673,-3.266,0.188,1.375,0.807,-0.666,-0.341,-0.202,0.299,-3.119,0.626
0.767,0.051,-3.239,-3.29,1.593,1.671,-3.264,0.189,1.379,0.813,-0.661,-0.339,-0.199,0.301,-3.112,0.626
0.768,0.054,-3.235,-3.289,1.59,1.672,-3.261,0.191,1.381,0.816,-0.66,-0.336,-0.196,0.304,-3.112,0.627
0.769,0.054,-3.233,-3.288,1.589,1.671,-3.26,0.187,1.375,0.812,-0.66,-0.338,-0.197,0.303,-3.11,0.625
0.77,0.059,-3.236,-3.295,1.589,1.677,-3.265,0.185,1.374,0.814,-0.66,-0.337,-0.197,0.305,-3.113,0.625
0.771,0.062,-3.236,-3.299,1.587,1.681,-3.267,0.19,1.381,0.82,-0.655,-0.333,-0.194,0.308,-3.115,0.626
0.772,0.058,-3.229,-3.288,1.586,1.673,-3.259,0.189,1.381,0.82,-0.652,-0.332,-0.191,0.308,-3.108,0.625
0.773,0.057,-3.228,-3.284,1.585,1.671,-3.256,0.188,1.379,0.817,-0.654,-0.331,-0.191,0.307,-3.107,0.627
0.774,0.057,-3.23,-3.287,1.587,1.671,-3.258,0.188,1.381,0.82,-0.655,-0.334,-0.195,0.306,-3.109,0.626
0.775,0.057,-3.228,-3.284,1.585,1.671,-3.256,0.186,1.379,0.821,-0.654,-0.332,-0.193,0.308,-3.112,0.624
0.776,0.055,-3.227,-3.282,1.586,1.669,-3.255,0.185,1.377,0.819,-0.655,-0.331,-0.191,0.309,-3.111,0.625
0.777,0.058,-3.224,-3.281,1.583,1.669,-3.252,0.181,1.377,0.82,-0.653,-0.331,-0.191,0.309,-3.103,0.625
0.778,0.059,-3.221,-3.28,1.581,1.669,-3.251,0.181,1.379,0.822,-0.65,-0.328,-0.189,0.311,-3.106,0.624
0.779,0.058,-3.224,-3.283,1.583,1.671,-3.253,0.183,1.379,0.821,-0.651,-0.329,-0.19,0.31,-3.107,0.627
0.78,0.064,-3.218,-3.281,1.577,1.673,-3.25,0.18,1.381,0.821,-0.653,-0.329,-0.191,0.312,-3.098,0.626
0.781,0.064,-3.212,-3.276,1.574,1.67,-3.244,0.179,1.384,0.826,-0.649,-0.325,-0.188,0.315,-3.098,0.618
0.782,0.059,-3.217,-3.276,1.579,1.668,-3.247,0.183,1.386,0.828,-0.646,-0.326,-0.187,0.314,-3.102,0.615
0.783,0.062,-3.219,-3.28,1.579,1.671,-3.249,0.183,1.383,0.825,-0.646,-0.323,-0.185,0.317,-3.106,0.62
0.784,0.061,-3.215,-3.276,1.577,1.669,-3.245,0.179,1.378,0.826,-0.644,-0.32,-0.181,0.319,-3.098,0.62
0.785,0.064,-3.208,-3.272,1.572,1.669,-3.24,0.182,1.385,0.83,-0.641,-0.318,-0.18,0.319,-3.087,0.619
0.786,0.068,-3.212,-3.28,1.572,1.674,-3.246,0.183,1.385,0.829,-0.639,-0.316,-0.18,0.322,-3.094,0.625
0.787,0.061,-3.22,-3.281,1.579,1.671,-3.251,0.176,1.38,0.827,-0.641,-0.317,-0.18,0.321,-3.106,0.621
0.788,0.067,-3.214,-3.281,1.573,1.674,-3.248,0.183,1.387,0.832,-0.635,-0.312,-0.177,0.324,-3.106,0.617
0.789,0.074,-3.205,-3.28,1.565,1.677,-3.242,0.184,1.39,0.837,-0.63,-0.306,-0.171,0.328,-3.095,0.616
0.79,0.074,-3.204,-3.279,1.565,1.677,-3.242,0.178,1.386,0.835,-0.631,-0.307,-0.172,0.328,-3.09,0.617
0.791,0.071,-3.204,-3.276,1.567,1.673,-3.24,0.177,1.387,0.834,-0.631,-0.307,-0.173,0.329,-3.09,0.618
0.792,0.072,-3.204,-3.276,1.567,1.673,-3.24,0.179,1.391,0.838,-0.627,-0.303,-0.172,0.33,-3.095,0.616
0.793,0.07,-3.205,-3.276,1.568,1.673,-3.24,0.181,1.391,0.838,-0.627,-0.303,-0.172,0.33,-3.095,0.616
0.794,0.066,-3.204,-3.27,1.569,1.667,-3.237,0.181,1.39,0.842,-0.624,-0.301,-0.17,0.331,-3.09,0.613
0.795,0.07,-3.201,-3.272,1.565,1.671,-3.236,0.175,1.385,0.841,-0.624,-0.299,-0.168,0.334,-3.088,0.617
0.796,0.073,-3.199,-3.272,1.563,1.672,-3.235,0.172,1.384,0.838,-0.629,-0.301,-0.171,0.332,-3.084,0.62
0.797,0.075,-3.2,-3.275,1.562,1.675,-3.237,0.174,1.385,0.841,-0.625,-0.299,-0.17,0.335,-3.09,0.615
0.798,0.074,-3.198,-3.273,1.562,1.673,-3.236,0.173,1.388,0.844,-0.624,-0.299,-0.17,0.335,-3.087,0.611
0.799,0.075,-3.193,-3.269,1.559,1.672,-3.231,0.172,1.387,0.845,-0.624,-0.297,-0.17,0.334,-3.079,0.604
0.8,0.079,-3.195,-3.274,1.558,1.676,-3.235,0.17,1.385,0.842,-0.623,-0.297,-0.169,0.338,-3.086,0.604
0.801,0.073,-3.204,-3.277,1.565,1.675,-3.24,0.167,1.381,0.84,-0.621,-0.297,-0.168,0.342,-3.092,0.611
0.802,0.07,-3.205,-3.275,1.568,1.672,-3.24,0.165,1.381,0.841,-0.621,-0.294,-0.167,0.342,-3.093,0.608
0.803,0.069,-3.203,-3.272,1.567,1.671,-3.237,0.171,1.391,0.846,-0.617,-0.289,-0.162,0.345,-3.086,0.601
0.804,0.068,-3.203,-3.269,1.567,1.669,-3.236,0.172,1.387,0.851,-0.613,-0.286,-0.16,0.346,-3.086,0.599
0.805,0.068,-3.199,-3.266,1.565,1.667,-3.232,0.166,1.385,0.85,-0.611,-0.284,-0.158,0.347,-3.084,0.6
0.806,0.07,-3.202,-3.272,1.567,1.671,-3.237,0.168,1.393,0.852,-0.606,-0.28,-0.154,0.35,-3.083,0.603
0.807,0.073,-3.202,-3.275,1.565,1.674,-3.239,0.17,1.396,0.859,-0.603,-0.281,-0.154,0.35,-3.086,0.602
0.808,0.074,-3.195,-3.269,1.56,1.671,-3.232,0.17,1.399,0.862,-0.596,-0.272,-0.147,0.356,-3.079,0.601
0.809,0.071,-3.195,-3.267,1.562,1.669,-3.231,0.169,1.39,0.856,-0.598,-0.271,-0.146,0.357,-3.08,0.601
0.81,0.073,-3.196,-3.27,1.562,1.672,-3.233,0.169,1.387,0.859,-0.595,-0.271,-0.145,0.36,-3.084,0.601
0.811,0.076,-3.192,-3.268,1.558,1.672,-3.231,0.17,1.395,0.863,-0.591,-0.268,-0.142,0.361,-3.079,0.6
0.812,0.079,-3.192,-3.272,1.557,1.675,-3.232,0.165,1.395,0.866,-0.59,-0.268,-0.143,0.36,-3.081,0.602
0.813,0.081,-3.189,-3.269,1.554,1.675,-3.229,0.167,1.393,0.867,-0.587,-0.265,-0.141,0.363,-3.078,0.599
0.814,0.083,-3.184,-3.267,1.55,1.675,-3.225,0.166,1.393,0.87,-0.585,-0.262,-0.139,0.364,-3.076,0.592
0.815,0.087,-3.188,-3.276,1.55,1.681,-3.232,0.161,1.396,0.873,-0.58,-0.259,-0.134,0.373,-3.078,0.606
0.816,0.087,-3.183,-3.271,1.548,1.679,-3.227,0.165,1.393,0.874,-0.579,-0.257,-0.134,0.372,-3.071,0.6
0.817,0.09,-3.176,-3.267,1.544,1.678,-3.221,0.162,1.397,0.881,-0.573,-0.251,-0.131,0.374,-3.07,0.587
0.818,0.091,-3.178,-3.268,1.544,1.679,-3.223,0.159,1.398,0.878,-0.572,-0.249,-0.127,0.38,-3.067,0.593
0.819,0.093,-3.174,-3.266,1.54,1.679,-3.22,0.16,1.395,0.876,-0.573,-0.247,-0.127,0.379,-3.061,0.592
0.82,0.098,-3.166,-3.263,1.534,1.68,-3.214,0.157,1.394,0.879,-0.57,-0.244,-0.126,0.381,-3.057,0.589
0.821,0.096,-3.165,-3.261,1.534,1.679,-3.213,0.157,1.4,0.882,-0.566,-0.241,-0.124,0.384,-3.058,0.587
0.822,0.1,-3.17,-3.269,1.535,1.685,-3.219,0.157,1.402,0.888,-0.562,-0.237,-0.122,0.39,-3.067,0.586
0.823,0.098,-3.167,-3.265,1.534,1.682,-3.216,0.154,1.397,0.887,-0.562,-0.235,-0.121,0.39,-3.063,0.586
0.824,0.091,-3.166,-3.257,1.538,1.675,-3.212,0.156,1.401,0.889,-0.557,-0.231,-0.116,0.391,-3.061,0.583
0.825,0.096,-3.16,-3.257,1.532,1.677,-3.209,0.159,1.401,0.889,-0.553,-0.228,-0.114,0.393,-3.063,0.578
0.826,0.099,-3.162,-3.26,1.531,1.679,-3.211,0.154,1.401,0.89,-0.553,-0.226,-0.115,0.395,-3.065,0.577
0.827,0.099,-3.166,-3.264,1.533,1.681,-3.215,0.154,1.407,0.899,-0.544,-0.221,-0.11,0.399,-3.066,0.575
0.828,0.102,-3.162,-3.264,1.53,1.683,-3.212,0.154,1.407,0.898,-0.542,-0.22,-0.108,0.401,-3.064,0.576
0.829,0.102,-3.159,-3.262,1.529,1.682,-3.211,0.154,1.411,0.904,-0.537,-0.215,-0.105,0.406,-3.059,0.575
0.83,0.106,-3.152,-3.259,1.524,1.683,-3.205,0.155,1.415,0.905,-0.532,-0.211,-0.101,0.408,-3.054,0.571
0.831,0.112,-3.146,-3.257,1.516,1.685,-3.201,0.15,1.405,0.905,-0.529,-0.205,-0.097,0.411,-3.048,0.573
0.832,0.109,-3.147,-3.256,1.52,1.683,-3.202,0.156,1.415,0.913,-0.523,-0.201,-0.093,0.416,-3.047,0.571
0.833,0.106,-3.149,-3.255,1.522,1.681,-3.202,0.154,1.419,0.912,-0.522,-0.2,-0.093,0.418,-3.053,0.569
0.834,0.11,-3.14,-3.251,1.515,1.681,-3.196,0.146,1.414,0.919,-0.517,-0.197,-0.09,0.419,-3.047,0.563
0.835,0.111,-3.142,-3.252,1.516,1.681,-3.196,0.15,1.419,0.919,-0.516,-0.197,-0.089,0.423,-3.049,0.563
0.836,0.111,-3.144,-3.256,1.517,1.683,-3.2,0.147,1.419,0.922,-0.512,-0.191,-0.085,0.428,-3.045,0.568
0.837,0.109,-3.143,-3.252,1.517,1.681,-3.197,0.145,1.413,0.923,-0.51,-0.188,-0.085,0.428,-3.034,0.572
0.838,0.106,-3.143,-3.249,1.518,1.677,-3.196,0.143,1.413,0.923,-0.507,-0.183,-0.08,0.432,-3.039,0.569
0.839,0.112,-3.135,-3.247,1.512,1.679,-3.191,0.141,1.419,0.931,-0.499,-0.176,-0.073,0.439,-3.041,0.558
0.84,0.117,-3.126,-3.244,1.504,1.681,-3.185,0.147,1.424,0.936,-0.494,-0.171,-0.071,0.44,-3.035,0.555
0.841,0.123,-3.119,-3.243,1.498,1.683,-3.18,0.148,1.425,0.94,-0.489,-0.164,-0.066,0.444,-3.03,0.552
0.842,0.128,-3.121,-3.249,1.496,1.688,-3.185,0.141,1.421,0.939,-0.488,-0.165,-0.067,0.446,-3.033,0.55
0.843,0.127,-3.123,-3.251,1.498,1.688,-3.187,0.138,1.425,0.942,-0.485,-0.163,-0.067,0.449,-3.034,0.554
0.844,0.126,-3.123,-3.249,1.498,1.688,-3.187,0.138,1.428,0.946,-0.478,-0.155,-0.06,0.457,-3.033,0.552
0.845,0.128,-3.12,-3.248,1.496,1.688,-3.184,0.135,1.424,0.946,-0.476,-0.152,-0.057,0.457,-3.029,0.543
0.846,0.132,-3.111,-3.241,1.49,1.687,-3.176,0.137,1.429,0.952,-0.471,-0.146,-0.055,0.457,-3.023,0.539
0.847,0.135,-3.11,-3.244,1.488,1.69,-3.177,0.138,1.434,0.959,-0.462,-0.139,-0.05,0.466,-3.02,0.543
0.848,0.136,-3.108,-3.245,1.486,1.69,-3.176,0.137,1.44,0.967,-0.458,-0.136,-0.045,0.468,-3.018,0.54
0.849,0.14,-3.106,-3.245,1.483,1.693,-3.175,0.14,1.441,0.974,-0.452,-0.128,-0.04,0.472,-3.022,0.531
0.85,0.142,-3.103,-3.246,1.48,1.694,-3.175,0.141,1.444,0.974,-0.447,-0.122,-0.035,0.478,-3.031,0.526
0.851,0.145,-3.095,-3.24,1.475,1.693,-3.168,0.139,1.446,0.981,-0.44,-0.117,-0.029,0.483,-3.022,0.528
0.852,0.141,-3.106,-3.247,1.482,1.694,-3.176,0.133,1.443,0.981,-0.438,-0.115,-0.03,0.486,-3.023,0.534
0.853,0.141,-3.106,-3.248,1.482,1.694,-3.176,0.132,1.447,0.982,-0.435,-0.112,-0.03,0.489,-3.019,0.534
0.854,0.16,-3.076,-3.236,1.458,1.698,-3.156,0.137,1.452,0.992,-0.42,-0.094,-0.013,0.497,-2.997,0.527
0.855,0.157,-3.075,-3.232,1.459,1.694,-3.154,0.138,1.456,0.995,-0.417,-0.094,-0.011,0.497,-3.003,0.525
0.856,0.152,-3.08,-3.232,1.464,1.692,-3.156,0.136,1.458,0.996,-0.416,-0.092,-0.013,0.499,-3.009,0.525
0.857,0.158,-3.076,-3.233,1.46,1.695,-3.155,0.132,1.456,0.998,-0.411,-0.086,-0.009,0.504,-3.006,0.521
0.858,0.158,-3.074,-3.232,1.458,1.694,-3.152,0.129,1.454,0.999,-0.409,-0.084,-0.006,0.508,-3.005,0.516
0.859,0.168,-3.068,-3.236,1.45,1.702,-3.152,0.129,1.46,1.01,-0.399,-0.073,0.002,0.516,-3.003,0.516
0.86,0.172,-3.068,-3.24,1.448,1.706,-3.155,0.128,1.46,1.012,-0.397,-0.07,0.004,0.518,-3.002,0.516
0.861,0.173,-3.064,-3.237,1.446,1.706,-3.151,0.119,1.454,1.009,-0.394,-0.067,0.006,0.523,-2.998,0.512
0.862,0.154,-3.079,-3.233,1.462,1.694,-3.155,0.108,1.452,1.008,-0.395,-0.068,0.004,0.525,-2.995,0.508
0.863,0.155,-3.072,-3.227,1.458,1.691,-3.15,0.112,1.455,1.014,-0.388,-0.06,0.01,0.528,-2.987,0.501
0.864,0.183,-3.049,-3.232,1.433,1.707,-3.14,0.123,1.468,1.029,-0.372,-0.043,0.025,0.537,-2.983,0.499
0.865,0.182,-3.05,-3.232,1.434,1.708,-3.142,0.127,1.475,1.034,-0.369,-0.042,0.026,0.539,-2.981,0.499
0.866,0.179,-3.047,-3.227,1.434,1.703,-3.137,0.122,1.468,1.032,-0.366,-0.041,0.028,0.541,-2.981,0.496
0.867,0.181,-3.049,-3.229,1.434,1.704,-3.139,0.119,1.465,1.032,-0.364,-0.035,0.033,0.548,-2.988,0.497
0.868,0.182,-3.043,-3.226,1.431,1.704,-3.135,0.119,1.473,1.038,-0.358,-0.031,0.037,0.552,-2.982,0.49
0.869,0.182,-3.04,-3.223,1.429,1.702,-3.131,0.12,1.476,1.042,-0.351,-0.022,0.044,0.556,-2.971,0.491
0.87,0.181,-3.037,-3.219,1.427,1.7,-3.127,0.118,1.475,1.046,-0.344,-0.015,0.05,0.563,-2.975,0.484
0.871,0.185,-3.036,-3.221,1.425,1.703,-3.128,0.116,1.476,1.05,-0.34,-0.012,0.051,0.568,-2.98,0.483
0.872,0.189,-3.037,-3.225,1.424,1.707,-3.131,0.114,1.48,1.054,-0.337,-0.01,0.052,0.572,-2.98,0.486
0.873,0.193,-3.027,-3.22,1.417,1.706,-3.123,0.108,1.477,1.054,-0.334,-0.005,0.057,0.578,-2.976,0.477
0.874,0.195,-3.026,-3.22,1.415,1.707,-3.123,0.108,1.478,1.06,-0.329,0.001,0.062,0.584,-2.97,0.481
0.875,0.198,-3.02,-3.217,1.411,1.708,-3.119,0.108,1.485,1.065,-0.323,0.008,0.067,0.588,-2.962,0.482
0.876,0.203,-3.02,-3.223,1.409,1.713,-3.122,0.105,1.482,1.067,-0.32,0.011,0.069,0.594,-2.959,0.483
0.877,0.204,-3.019,-3.224,1.407,1.714,-3.122,0.101,1.482,1.073,-0.313,0.016,0.073,0.599,-2.962,0.476
0.878,0.191,-3.026,-3.216,1.417,1.704,-3.121,0.093,1.481,1.071,-0.312,0.019,0.075,0.602,-2.963,0.472
0.879,0.195,-3.023,-3.217,1.414,1.706,-3.12,0.091,1.479,1.073,-0.309,0.024,0.081,0.606,-2.961,0.472
0.88,0.218,-3.002,-3.22,1.391,1.719,-3.111,0.097,1.486,1.082,-0.3,0.033,0.089,0.612,-2.956,0.469
0.881,0.219,-2.998,-3.217,1.389,1.718,-3.108,0.097,1.49,1.085,-0.296,0.037,0.092,0.617,-2.954,0.469
0.882,0.217,-2.997,-3.214,1.39,1.716,-3.106,0.097,1.488,1.087,-0.293,0.041,0.097,0.621,-2.946,0.467
0.883,0.22,-2.997,-3.217,1.389,1.718,-3.107,0.097,1.49,1.093,-0.287,0.047,0.1,0.626,-2.945,0.466
0.884,0.223,-2.994,-3.217,1.385,1.72,-3.106,0.092,1.49,1.093,-0.282,0.052,0.105,0.629,-2.943,0.462
0.885,0.228,-2.986,-3.215,1.379,1.721,-3.1,0.092,1.494,1.097,-0.277,0.057,0.111,0.633,-2.933,0.459
0.886,0.226,-2.987,-3.212,1.381,1.72,-3.1,0.092,1.496,1.101,-0.274,0.061,0.115,0.635,-2.939,0.46
0.887,0.229,-2.985,-3.214,1.378,1.722,-3.099,0.089,1.494,1.099,-0.274,0.064,0.118,0.641,-2.943,0.463
0.888,0.234,-2.974,-3.209,1.37,1.722,-3.092,0.088,1.496,1.107,-0.266,0.071,0.125,0.645,-2.929,0.456
0.889,0.235,-2.971,-3.207,1.368,1.722,-3.09,0.089,1.498,1.111,-0.26,0.075,0.128,0.647,-2.925,0.453
0.89,0.236,-2.974,-3.21,1.369,1.723,-3.091,0.087,1.502,1.114,-0.259,0.077,0.13,0.651,-2.931,0.452
0.891,0.239,-2.97,-3.209,1.366,1.724,-3.09,0.082,1.499,1.116,-0.254,0.082,0.135,0.655,-2.933,0.444
0.892,0.244,-2.968,-3.212,1.362,1.728,-3.09,0.086,1.499,1.117,-0.251,0.085,0.138,0.658,-2.941,0.444
0.893,0.252,-2.958,-3.21,1.353,1.73,-3.084,0.088,1.504,1.122,-0.245,0.091,0.144,0.663,-2.933,0.441
0.894,0.256,-2.953,-3.208,1.349,1.732,-3.08,0.083,1.506,1.129,-0.24,0.098,0.149,0.668,-2.925,0.438
0.895,0.257,-2.954,-3.211,1.348,1.734,-3.082,0.085,1.504,1.128,-0.238,0.1,0.152,0.67,-2.929,0.436
0.896,0.26,-2.954,-3.213,1.347,1.736,-3.084,0.083,1.504,1.129,-0.236,0.101,0.153,0.673,-2.933,0.433
0.897,0.263,-2.95,-3.212,1.343,1.738,-3.081,0.08,1.507,1.133,-0.234,0.103,0.155,0.676,-2.931,0.433
0.898,0.264,-2.946,-3.209,1.341,1.736,-3.078,0.076,1.504,1.134,-0.233,0.105,0.158,0.68,-2.921,0.437
0.899,0.265,-2.945,-3.209,1.34,1.738,-3.078,0.069,1.505,1.135,-0.231,0.107,0.16,0.684,-2.921,0.439
0.9,0.268,-2.938,-3.205,1.335,1.736,-3.071,0.069,1.502,1.135,-0.228,0.112,0.166,0.689,-2.921,0.429
0.901,0.269,-2.936,-3.204,1.333,1.736,-3.07,0.07,1.502,1.135,-0.227,0.114,0.167,0.691,-2.92,0.429
0.902,0.265,-2.935,-3.2,1.335,1.732,-3.067,0.07,1.503,1.137,-0.225,0.117,0.169,0.692,-2.92,0.431
0.903,0.267,-2.933,-3.199,1.333,1.732,-3.066,0.07,1.508,1.141,-0.224,0.118,0.172,0.695,-2.92,0.431
0.904,0.273,-2.929,-3.203,1.329,1.738,-3.066,0.068,1.506,1.142,-0.221,0.122,0.174,0.697,-2.909,0.441
0.905,0.274,-2.924,-3.198,1.325,1.736,-3.061,0.062,1.502,1.141,-0.216,0.128,0.18,0.701,-2.897,0.438
0.906,0.274,-2.924,-3.197,1.325,1.736,-3.061,0.066,1.504,1.141,-0.216,0.129,0.181,0.702,-2.9,0.442
0.907,0.28,-2.922,-3.201,1.321,1.74,-3.062,0.062,1.502,1.144,-0.213,0.13,0.183,0.706,-2.9,0.447
0.908,0.282,-2.917,-3.199,1.317,1.74,-3.058,0.058,1.506,1.149,-0.209,0.133,0.187,0.71,-2.888,0.441
0.909,0.283,-2.92,-3.202,1.318,1.742,-3.061,0.056,1.502,1.147,-0.209,0.136,0.189,0.711,-2.89,0.444
0.91,0.285,-2.92,-3.205,1.317,1.746,-3.062,0.057,1.506,1.15,-0.208,0.136,0.19,0.713,-2.894,0.446
0.911,0.284,-2.919,-3.204,1.317,1.744,-3.062,0.056,1.502,1.147,-0.21,0.135,0.19,0.712,-2.898,0.448
0.912,0.289,-2.912,-3.201,1.312,1.745,-3.057,0.052,1.498,1.143,-0.209,0.138,0.195,0.716,-2.901,0.443
0.913,0.289,-2.91,-3.2,1.31,1.744,-3.055,0.053,1.504,1.151,-0.205,0.14,0.198,0.721,-2.896,0.439
0.914,0.291,-2.907,-3.198,1.308,1.744,-3.053,0.05,1.502,1.15,-0.202,0.147,0.204,0.728,-2.889,0.442
0.915,0.294,-2.9,-3.194,1.302,1.744,-3.046,0.051,1.496,1.144,-0.205,0.145,0.204,0.729,-2.884,0.437
0.916,0.292,-2.903,-3.196,1.306,1.744,-3.05,0.043,1.491,1.143,-0.207,0.142,0.203,0.731,-2.889,0.437
0.917,0.296,-2.9,-3.196,1.302,1.746,-3.048,0.041,1.494,1.147,-0.207,0.145,0.205,0.733,-2.889,0.438
0.918,0.296,-2.905,-3.201,1.304,1.749,-3.053,0.045,1.49,1.14,-0.213,0.142,0.204,0.734,-2.897,0.44
0.919,0.294,-2.899,-3.193,1.302,1.744,-3.046,0.038,1.488,1.141,-0.211,0.146,0.208,0.735,-2.886,0.433
0.92,0.299,-2.889,-3.188,1.294,1.744,-3.038,0.035,1.488,1.141,-0.209,0.148,0.214,0.741,-2.87,0.442
0.921,0.301,-2.894,-3.196,1.296,1.748,-3.045,0.033,1.484,1.136,-0.212,0.148,0.217,0.745,-2.87,0.457
0.922,0.301,-2.893,-3.195,1.296,1.748,-3.043,0.032,1.482,1.135,-0.214,0.144,0.213,0.741,-2.864,0.454
0.923,0.302,-2.893,-3.195,1.295,1.748,-3.043,0.029,1.479,1.131,-0.216,0.142,0.213,0.741,-2.864,0.455
0.924,0.302,-2.894,-3.197,1.296,1.75,-3.046,0.028,1.478,1.127,-0.218,0.142,0.215,0.743,-2.864,0.458
0.925,0.307,-2.888,-3.194,1.29,1.75,-3.041,0.025,1.476,1.121,-0.223,0.139,0.216,0.743,-2.857,0.455
0.926,0.308,-2.884,-3.191,1.288,1.75,-3.037,0.025,1.474,1.12,-0.223,0.141,0.219,0.744,-2.86,0.456
0.927,0.305,-2.888,-3.192,1.292,1.748,-3.04,0.026,1.473,1.121,-0.227,0.138,0.217,0.743,-2.86,0.466
0.928,0.305,-2.886,-3.191,1.29,1.748,-3.038,0.023,1.468,1.119,-0.231,0.136,0.217,0.743,-2.857,0.466
0.929,0.304,-2.888,-3.191,1.292,1.748,-3.039,0.022,1.461,1.111,-0.232,0.134,0.22,0.743,-2.863,0.469
0.93,0.307,-2.885,-3.192,1.288,1.75,-3.038,0.019,1.462,1.105,-0.239,0.129,0.219,0.743,-2.861,0.474
0.931,0.308,-2.886,-3.195,1.289,1.752,-3.041,0.018,1.46,1.103,-0.243,0.126,0.219,0.743,-2.86,0.477
0.932,0.304,-2.892,-3.196,1.294,1.75,-3.043,0.018,1.454,1.097,-0.247,0.122,0.215,0.741,-2.864,0.483
0.933,0.307,-2.885,-3.192,1.289,1.75,-3.038,0.015,1.45,1.093,-0.253,0.119,0.215,0.741,-2.862,0.481
0.934,0.307,-2.887,-3.193,1.29,1.75,-3.041,0.015,1.452,1.091,-0.255,0.116,0.215,0.74,-2.869,0.481
0.935,0.306,-2.886,-3.192,1.29,1.748,-3.039,0.015,1.448,1.083,-0.265,0.11,0.21,0.737,-2.865,0.484
0.936,0.306,-2.885,-3.191,1.289,1.748,-3.038,0.009,1.438,1.072,-0.277,0.102,0.207,0.733,-2.858,0.492
0.937,0.307,-2.885,-3.191,1.288,1.749,-3.038,0.007,1.434,1.067,-0.281,0.098,0.204,0.729,-2.861,0.496
0.938,0.305,-2.893,-3.199,1.294,1.752,-3.046,0.004,1.425,1.059,-0.29,0.088,0.2,0.728,-2.866,0.508
0.939,0.304,-2.899,-3.204,1.298,1.754,-3.051,0.008,1.43,1.056,-0.296,0.083,0.196,0.723,-2.87,0.511
0.94,0.307,-2.889,-3.196,1.29,1.752,-3.042,0.01,1.433,1.056,-0.297,0.081,0.196,0.72,-2.867,0.501
0.941,0.3,-2.888,-3.188,1.294,1.744,-3.038,0.013,1.423,1.042,-0.311,0.07,0.191,0.712,-2.873,0.504
0.942,0.298,-2.892,-3.19,1.296,1.744,-3.041,0.015,1.417,1.035,-0.32,0.064,0.188,0.709,-2.877,0.51
0.943,0.3,-2.899,-3.2,1.3,1.75,-3.05,0.009,1.411,1.03,-0.323,0.061,0.19,0.711,-2.881,0.515
0.944,0.296,-2.905,-3.202,1.304,1.75,-3.054,0.011,1.409,1.021,-0.336,0.05,0.179,0.702,-2.887,0.518
0.945,0.295,-2.913,-3.209,1.309,1.752,-3.062,0.013,1.407,1.012,-0.35,0.035,0.167,0.693,-2.885,0.528
0.946,0.288,-2.922,-3.211,1.317,1.75,-3.067,0.011,1.404,1.004,-0.357,0.029,0.166,0.688,-2.89,0.54
0.947,0.283,-2.917,-3.2,1.317,1.742,-3.059,0.011,1.398,0.999,-0.362,0.025,0.162,0.681,-2.891,0.538
0.948,0.281,-2.921,-3.201,1.319,1.742,-3.061,0.013,1.395,0.992,-0.371,0.017,0.156,0.674,-2.897,0.538
0.949,0.281,-2.926,-3.206,1.323,1.744,-3.066,0.018,1.396,0.987,-0.38,0.007,0.15,0.668,-2.897,0.544
0.95,0.278,-2.93,-3.209,1.327,1.744,-3.07,0.018,1.389,0.978,-0.391,-0.002,0.142,0.662,-2.901,0.547
0.951,0.273,-2.936,-3.208,1.331,1.74,-3.072,0.015,1.385,0.97,-0.399,-0.008,0.14,0.657,-2.905,0.554
0.952,0.265,-2.938,-3.203,1.337,1.734,-3.071,0.022,1.385,0.963,-0.41,-0.021,0.13,0.646,-2.903,0.555
0.953,0.262,-2.943,-3.204,1.341,1.732,-3.074,0.022,1.379,0.955,-0.419,-0.029,0.121,0.639,-2.911,0.559
0.954,0.26,-2.949,-3.208,1.345,1.734,-3.079,0.021,1.373,0.948,-0.427,-0.037,0.117,0.634,-2.91,0.569
0.955,0.259,-2.947,-3.206,1.344,1.732,-3.076,0.026,1.373,0.944,-0.433,-0.043,0.111,0.627,-2.91,0.563
0.956,0.26,-2.944,-3.204,1.343,1.731,-3.074,0.029,1.371,0.938,-0.44,-0.05,0.107,0.622,-2.914,0.562
0.957,0.25,-2.957,-3.207,1.353,1.728,-3.082,0.025,1.362,0.926,-0.456,-0.066,0.095,0.612,-2.917,0.57
0.958,0.239,-2.97,-3.209,1.365,1.724,-3.089,0.024,1.358,0.916,-0.469,-0.078,0.086,0.604,-2.922,0.574
0.959,0.235,-2.979,-3.214,1.372,1.724,-3.096,0.023,1.355,0.908,-0.478,-0.089,0.079,0.597,-2.926,0.582
0.96,0.234,-2.979,-3.214,1.373,1.724,-3.097,0.022,1.348,0.901,-0.485,-0.096,0.072,0.592,-2.918,0.589
0.961,0.234,-2.975,-3.211,1.371,1.722,-3.093,0.029,1.347,0.895,-0.492,-0.102,0.068,0.583,-2.915,0.595
0.962,0.234,-2.982,-3.215,1.374,1.724,-3.099,0.037,1.347,0.89,-0.501,-0.11,0.061,0.575,-2.927,0.599
0.963,0.231,-2.986,-3.217,1.377,1.724,-3.102,0.036,1.347,0.884,-0.508,-0.117,0.056,0.569,-2.926,0.602
0.964,0.225,-2.988,-3.212,1.382,1.718,-3.1,0.035,1.343,0.877,-0.518,-0.127,0.049,0.558,-2.924,0.608
0.965,0.214,-2.996,-3.211,1.391,1.712,-3.103,0.039,1.337,0.871,-0.528,-0.136,0.041,0.55,-2.93,0.612
0.966,0.212,-3.004,-3.216,1.395,1.714,-3.11,0.041,1.335,0.865,-0.534,-0.143,0.035,0.544,-2.938,0.619
0.967,0.211,-3.006,-3.217,1.397,1.714,-3.111,0.041,1.331,0.862,-0.541,-0.15,0.029,0.537,-2.942,0.621
0.968,0.207,-3.008,-3.216,1.4,1.712,-3.112,0.047,1.333,0.861,-0.548,-0.157,0.023,0.53,-2.942,0.622
0.969,0.2,-3.019,-3.22,1.41,1.71,-3.119,0.051,1.333,0.856,-0.554,-0.166,0.017,0.524,-2.95,0.626
0.97,0.198,-3.025,-3.223,1.414,1.71,-3.124,0.051,1.333,0.85,-0.562,-0.172,0.009,0.517,-2.962,0.624
0.971,0.194,-3.028,-3.221,1.417,1.708,-3.125,0.058,1.333,0.847,-0.566,-0.177,0.004,0.51,-2.965,0.622
0.972,0.18,-3.038,-3.217,1.429,1.698,-3.127,0.054,1.323,0.839,-0.575,-0.186,-0.004,0.504,-2.961,0.623
0.973,0.185,-3.036,-3.221,1.425,1.703,-3.128,0.055,1.323,0.835,-0.581,-0.193,-0.009,0.498,-2.957,0.633
0.974,0.196,-3.028,-3.224,1.417,1.71,-3.126,0.063,1.329,0.836,-0.581,-0.195,-0.01,0.494,-2.953,0.644
0.975,0.191,-3.034,-3.224,1.421,1.708,-3.129,0.06,1.327,0.83,-0.589,-0.204,-0.018,0.488,-2.957,0.642
0.976,0.18,-3.045,-3.225,1.432,1.702,-3.135,0.063,1.323,0.827,-0.595,-0.211,-0.025,0.48,-2.962,0.645
0.977,0.178,-3.051,-3.229,1.437,1.704,-3.14,0.063,1.321,0.821,-0.602,-0.217,-0.029,0.476,-2.969,0.647
0.978,0.175,-3.057,-3.232,1.44,1.704,-3.144,0.064,1.321,0.816,-0.608,-0.224,-0.036,0.472,-2.978,0.641
0.979,0.169,-3.059,-3.228,1.445,1.698,-3.143,0.068,1.319,0.813,-0.613,-0.229,-0.042,0.465,-2.978,0.643
0.98,0.167,-3.064,-3.232,1.449,1.7,-3.148,0.069,1.317,0.808,-0.621,-0.237,-0.047,0.461,-2.986,0.649
0.981,0.166,-3.066,-3.232,1.45,1.698,-3.148,0.067,1.315,0.805,-0.624,-0.24,-0.051,0.456,-2.989,0.646
0.982,0.16,-3.068,-3.228,1.454,1.694,-3.148,0.067,1.311,0.8,-0.629,-0.247,-0.056,0.449,-2.986,0.647
0.983,0.153,-3.078,-3.232,1.462,1.692,-3.155,0.072,1.313,0.801,-0.633,-0.252,-0.059,0.447,-2.99,0.653
0.984,0.154,-3.079,-3.233,1.462,1.694,-3.156,0.072,1.313,0.798,-0.635,-0.255,-0.063,0.443,-2.989,0.653
0.985,0.149,-3.084,-3.233,1.468,1.691,-3.159,0.074,1.313,0.798,-0.637,-0.259,-0.066,0.437,-2.993,0.65
0.986,0.143,-3.088,-3.232,1.472,1.688,-3.159,0.082,1.313,0.797,-0.641,-0.263,-0.07,0.431,-2.999,0.651
0.987,0.142,-3.087,-3.23,1.472,1.686,-3.159,0.081,1.31,0.791,-0.648,-0.269,-0.075,0.427,-2.998,0.657
0.988,0.141,-3.091,-3.233,1.475,1.687,-3.162,0.082,1.309,0.789,-0.648,-0.271,-0.077,0.426,-3,0.659
0.989,0.141,-3.095,-3.237,1.478,1.689,-3.167,0.081,1.306,0.785,-0.652,-0.275,-0.081,0.422,-3.002,0.66
0.99,0.14,-3.1,-3.24,1.48,1.69,-3.17,0.083,1.308,0.787,-0.653,-0.277,-0.084,0.42,-3.003,0.661
0.991,0.137,-3.102,-3.239,1.482,1.688,-3.17,0.086,1.313,0.787,-0.654,-0.281,-0.085,0.418,-3.007,0.662
0.992,0.137,-3.099,-3.236,1.481,1.687,-3.167,0.086,1.308,0.783,-0.657,-0.285,-0.089,0.414,-2.998,0.666
0.993,0.135,-3.102,-3.236,1.483,1.686,-3.169,0.09,1.308,0.782,-0.659,-0.288,-0.092,0.409,-3.002,0.664
0.994,0.136,-3.103,-3.238,1.484,1.687,-3.171,0.088,1.308,0.779,-0.663,-0.288,-0.093,0.408,-3.01,0.664
0.995,0.137,-3.1,-3.237,1.482,1.688,-3.169,0.085,1.302,0.775,-0.665,-0.289,-0.095,0.407,-3.009,0.667
0.996,0.134,-3.102,-3.236,1.484,1.685,-3.169,0.086,1.306,0.777,-0.667,-0.291,-0.095,0.406,-3.007,0.663
0.997,0.134,-3.102,-3.235,1.484,1.685,-3.168,0.087,1.306,0.777,-0.669,-0.294,-0.097,0.404,-2.999,0.665
0.998,0.134,-3.101,-3.235,1.484,1.684,-3.168,0.09,1.306,0.775,-0.671,-0.297,-0.1,0.399,-2.998,0.663
0.999,0.134,-3.106,-3.239,1.486,1.686,-3.172,0.091,1.308,0.782,-0.667,-0.296,-0.102,0.396,-3.006,0.663
1,0.131,-3.11,-3.241,1.49,1.686,-3.175,0.089,1.305,0.778,-0.673,-0.301,-0.107,0.395,-3.006,0.67
1.001,0.129,-3.109,-3.237,1.49,1.683,-3.173,0.092,1.303,0.77,-0.68,-0.304,-0.109,0.391,-3.004,0.665
1.002,0.123,-3.115,-3.237,1.496,1.68,-3.176,0.089,1.302,0.771,-0.68,-0.309,-0.115,0.389,-3.003,0.666
1.003,0.114,-3.119,-3.233,1.502,1.673,-3.176,0.084,1.3,0.77,-0.682,-0.311,-0.115,0.389,-3.007,0.664
1.004,0.126,-3.11,-3.236,1.492,1.681,-3.173,0.091,1.304,0.773,-0.678,-0.308,-0.111,0.389,-3.006,0.665
1.005,0.134,-3.108,-3.243,1.488,1.688,-3.175,0.094,1.306,0.774,-0.677,-0.307,-0.112,0.389,-3.006,0.667
1.006,0.127,-3.115,-3.243,1.494,1.685,-3.179,0.095,1.305,0.774,-0.679,-0.309,-0.114,0.386,-3.006,0.668
1.007,0.126,-3.116,-3.243,1.495,1.685,-3.179,0.096,1.305,0.771,-0.681,-0.31,-0.116,0.385,-3.006,0.67
1.008,0.124,-3.111,-3.235,1.492,1.68,-3.173,0.097,1.304,0.772,-0.679,-0.31,-0.116,0.382,-3.008,0.667
1.009,0.12,-3.112,-3.233,1.496,1.677,-3.173,0.1,1.306,0.774,-0.681,-0.312,-0.116,0.38,-3.008,0.668
1.01,0.118,-3.12,-3.238,1.501,1.678,-3.179,0.1,1.308,0.771,-0.683,-0.311,-0.117,0.38,-3.016,0.664
1.011,0.122,-3.123,-3.245,1.5,1.683,-3.184,0.1,1.309,0.772,-0.682,-0.314,-0.119,0.382,-3.022,0.668
1.012,0.122,-3.122,-3.244,1.5,1.683,-3.183,0.099,1.306,0.77,-0.683,-0.316,-0.118,0.382,-3.016,0.676
1.013,0.119,-3.119,-3.237,1.5,1.678,-3.178,0.101,1.307,0.774,-0.681,-0.314,-0.117,0.379,-3.014,0.667
1.014,0.119,-3.116,-3.236,1.498,1.678,-3.176,0.104,1.31,0.777,-0.68,-0.314,-0.119,0.376,-3.014,0.658
1.015,0.123,-3.119,-3.243,1.497,1.683,-3.18,0.102,1.309,0.774,-0.684,-0.317,-0.121,0.376,-3.017,0.664
1.016,0.122,-3.12,-3.243,1.499,1.682,-3.182,0.1,1.307,0.772,-0.687,-0.318,-0.124,0.377,-3.015,0.667
1.017,0.115,-3.124,-3.239,1.504,1.677,-3.181,0.102,1.305,0.77,-0.687,-0.317,-0.123,0.375,-3.018,0.664
1.018,0.115,-3.13,-3.245,1.508,1.68,-3.188,0.101,1.302,0.77,-0.687,-0.317,-0.124,0.377,-3.025,0.667
1.019,0.116,-3.126,-3.241,1.505,1.679,-3.183,0.099,1.299,0.768,-0.689,-0.32,-0.125,0.374,-3.018,0.67
1.02,0.12,-3.121,-3.241,1.5,1.681,-3.181,0.098,1.302,0.772,-0.686,-0.319,-0.124,0.374,-3.013,0.669
1.021,0.12,-3.123,-3.244,1.502,1.683,-3.184,0.098,1.303,0.77,-0.689,-0.319,-0.127,0.374,-3.014,0.674
1.022,0.116,-3.13,-3.245,1.507,1.681,-3.188,0.102,1.301,0.765,-0.694,-0.324,-0.131,0.37,-3.017,0.675
1.023,0.112,-3.131,-3.243,1.51,1.677,-3.187,0.104,1.307,0.769,-0.691,-0.321,-0.129,0.371,-3.014,0.669
1.024,0.11,-3.129,-3.239,1.51,1.674,-3.184,0.106,1.308,0.77,-0.688,-0.32,-0.127,0.373,-3.015,0.665
1.025,0.11,-3.13,-3.24,1.51,1.675,-3.185,0.105,1.306,0.771,-0.685,-0.321,-0.127,0.372,-3.016,0.665
1.026,0.11,-3.131,-3.24,1.511,1.675,-3.186,0.102,1.306,0.771,-0.684,-0.318,-0.125,0.371,-3.017,0.666
1.027,0.113,-3.131,-3.244,1.509,1.677,-3.187,0.102,1.304,0.77,-0.687,-0.321,-0.129,0.371,-3.018,0.665
1.028,0.112,-3.127,-3.24,1.508,1.675,-3.183,0.099,1.304,0.769,-0.689,-0.323,-0.131,0.369,-3.019,0.665
1.029,0.107,-3.132,-3.239,1.512,1.673,-3.186,0.101,1.301,0.766,-0.689,-0.324,-0.132,0.368,-3.019,0.669
1.03,0.105,-3.134,-3.24,1.514,1.673,-3.187,0.102,1.299,0.763,-0.691,-0.325,-0.135,0.366,-3.015,0.671
1.031,0.106,-3.131,-3.237,1.513,1.671,-3.185,0.101,1.303,0.765,-0.689,-0.323,-0.131,0.367,-3.018,0.669
1.032,0.107,-3.13,-3.237,1.511,1.673,-3.183,0.099,1.304,0.766,-0.687,-0.322,-0.131,0.368,-3.018,0.667
1.033,0.11,-3.127,-3.236,1.508,1.673,-3.182,0.102,1.306,0.769,-0.686,-0.321,-0.131,0.368,-3.013,0.669
1.034,0.11,-3.128,-3.237,1.509,1.673,-3.183,0.104,1.309,0.771,-0.685,-0.322,-0.131,0.369,-3.011,0.674
1.035,0.107,-3.13,-3.237,1.512,1.672,-3.183,0.103,1.304,0.769,-0.687,-0.323,-0.132,0.368,-3.015,0.671
1.036,0.1,-3.132,-3.232,1.516,1.666,-3.183,0.103,1.301,0.768,-0.69,-0.325,-0.135,0.366,-3.022,0.663
1.037,0.102,-3.128,-3.231,1.513,1.667,-3.179,0.101,1.299,0.769,-0.689,-0.325,-0.136,0.366,-3.015,0.661
1.038,0.101,-3.132,-3.233,1.516,1.667,-3.183,0.101,1.304,0.77,-0.69,-0.327,-0.138,0.366,-3.02,0.661
1.039,0.083,-3.147,-3.229,1.532,1.656,-3.188,0.093,1.298,0.761,-0.695,-0.329,-0.141,0.365,-3.025,0.665
1.04,0.089,-3.14,-3.23,1.526,1.659,-3.185,0.096,1.293,0.763,-0.692,-0.326,-0.138,0.365,-3.017,0.664
1.041,0.109,-3.127,-3.236,1.509,1.672,-3.181,0.116,1.312,0.776,-0.684,-0.321,-0.132,0.368,-3.014,0.662
1.042,0.101,-3.134,-3.235,1.516,1.668,-3.184,0.111,1.308,0.773,-0.688,-0.323,-0.134,0.367,-3.018,0.661
1.043,0.096,-3.137,-3.232,1.52,1.665,-3.184,0.102,1.302,0.77,-0.691,-0.325,-0.137,0.366,-3.018,0.655
1.044,0.1,-3.134,-3.233,1.517,1.667,-3.183,0.101,1.302,0.772,-0.687,-0.322,-0.135,0.368,-3.014,0.658
1.045,0.102,-3.132,-3.235,1.515,1.669,-3.184,0.103,1.301,0.77,-0.688,-0.324,-0.137,0.366,-3.013,0.661
1.046,0.109,-3.132,-3.241,1.512,1.675,-3.187,0.106,1.306,0.771,-0.69,-0.327,-0.138,0.366,-3.012,0.667
1.047,0.103,-3.135,-3.238,1.516,1.671,-3.186,0.103,1.302,0.771,-0.687,-0.325,-0.137,0.367,-3.019,0.664
1.048,0.099,-3.131,-3.229,1.516,1.664,-3.18,0.102,1.3,0.768,-0.689,-0.323,-0.137,0.366,-3.013,0.662
1.049,0.101,-3.136,-3.237,1.518,1.669,-3.187,0.105,1.304,0.771,-0.691,-0.324,-0.14,0.367,-3.017,0.674
1.05,0.093,-3.146,-3.239,1.526,1.667,-3.192,0.104,1.305,0.772,-0.69,-0.325,-0.141,0.364,-3.025,0.674
1.051,0.089,-3.143,-3.232,1.526,1.661,-3.187,0.102,1.298,0.771,-0.689,-0.324,-0.14,0.363,-3.014,0.668
1.052,0.091,-3.141,-3.232,1.525,1.661,-3.186,0.104,1.298,0.77,-0.688,-0.323,-0.139,0.366,-3.01,0.67
1.053,0.098,-3.139,-3.236,1.52,1.667,-3.188,0.103,1.305,0.773,-0.686,-0.325,-0.14,0.365,-3.014,0.673
1.054,0.106,-3.131,-3.236,1.512,1.671,-3.183,0.107,1.31,0.781,-0.683,-0.32,-0.139,0.366,-3.012,0.672
1.055,0.101,-3.131,-3.232,1.516,1.666,-3.181,0.105,1.304,0.774,-0.687,-0.323,-0.14,0.365,-3.011,0.668
1.056,0.095,-3.137,-3.232,1.521,1.663,-3.184,0.103,1.302,0.771,-0.691,-0.329,-0.144,0.362,-3.015,0.663
1.057,0.097,-3.136,-3.233,1.52,1.665,-3.185,0.102,1.302,0.77,-0.689,-0.326,-0.142,0.365,-3.016,0.665
1.058,0.099,-3.134,-3.233,1.518,1.666,-3.183,0.099,1.296,0.769,-0.689,-0.326,-0.141,0.367,-3.011,0.668
1.059,0.099,-3.132,-3.232,1.517,1.665,-3.182,0.102,1.303,0.773,-0.688,-0.324,-0.141,0.366,-3.013,0.665
1.06,0.101,-3.132,-3.233,1.516,1.667,-3.183,0.102,1.304,0.771,-0.689,-0.326,-0.142,0.365,-3.017,0.663
1.061,0.101,-3.134,-3.235,1.516,1.667,-3.184,0.102,1.302,0.769,-0.691,-0.327,-0.143,0.366,-3.017,0.666
1.062,0.1,-3.137,-3.237,1.518,1.669,-3.187,0.099,1.3,0.768,-0.689,-0.326,-0.142,0.367,-3.017,0.668
1.063,0.101,-3.136,-3.237,1.518,1.669,-3.187,0.098,1.3,0.768,-0.69,-0.327,-0.142,0.366,-3.013,0.67
1.064,0.099,-3.135,-3.233,1.518,1.666,-3.184,0.104,1.302,0.77,-0.69,-0.328,-0.142,0.364,-3.012,0.669
1.065,0.095,-3.14,-3.235,1.522,1.665,-3.188,0.106,1.304,0.771,-0.69,-0.327,-0.144,0.362,-3.018,0.668
1.066,0.096,-3.139,-3.235,1.521,1.665,-3.187,0.106,1.306,0.772,-0.688,-0.326,-0.143,0.362,-3.019,0.668
1.067,0.1,-3.136,-3.236,1.518,1.667,-3.186,0.106,1.306,0.771,-0.688,-0.327,-0.143,0.362,-3.015,0.668
1.068,0.104,-3.131,-3.236,1.514,1.671,-3.184,0.105,1.302,0.771,-0.686,-0.324,-0.141,0.364,-3.014,0.667
1.069,0.104,-3.13,-3.235,1.513,1.669,-3.183,0.106,1.308,0.774,-0.685,-0.326,-0.141,0.362,-3.018,0.666
1.07,0.102,-3.132,-3.235,1.514,1.669,-3.183,0.105,1.309,0.774,-0.686,-0.326,-0.143,0.36,-3.018,0.666
1.071,0.107,-3.127,-3.233,1.51,1.67,-3.18,0.106,1.303,0.773,-0.682,-0.323,-0.139,0.362,-3.014,0.665
1.072,0.104,-3.13,-3.233,1.513,1.669,-3.182,0.109,1.313,0.777,-0.684,-0.325,-0.141,0.36,-3.019,0.666
1.073,0.099,-3.135,-3.234,1.518,1.667,-3.184,0.108,1.313,0.779,-0.686,-0.326,-0.144,0.359,-3.022,0.668
1.074,0.103,-3.128,-3.232,1.512,1.667,-3.18,0.107,1.309,0.774,-0.687,-0.324,-0.142,0.361,-3.014,0.667
1.075,0.102,-3.135,-3.236,1.516,1.669,-3.186,0.107,1.308,0.773,-0.687,-0.324,-0.142,0.36,-3.014,0.674
1.076,0.096,-3.136,-3.232,1.52,1.664,-3.184,0.108,1.308,0.775,-0.686,-0.327,-0.145,0.358,-3.011,0.668
1.077,0.099,-3.124,-3.223,1.512,1.661,-3.174,0.11,1.31,0.777,-0.685,-0.324,-0.145,0.355,-3.006,0.653
1.078,0.1,-3.135,-3.233,1.518,1.667,-3.184,0.107,1.31,0.776,-0.686,-0.325,-0.147,0.358,-3.014,0.669
1.079,0.1,-3.139,-3.237,1.52,1.669,-3.188,0.108,1.308,0.774,-0.689,-0.327,-0.147,0.359,-3.021,0.673
1.08,0.099,-3.135,-3.235,1.518,1.667,-3.185,0.102,1.302,0.771,-0.688,-0.326,-0.144,0.36,-3.022,0.665
1.081,0.097,-3.135,-3.232,1.518,1.665,-3.183,0.102,1.306,0.771,-0.688,-0.325,-0.144,0.361,-3.021,0.664
1.082,0.096,-3.128,-3.224,1.516,1.66,-3.176,0.109,1.308,0.771,-0.69,-0.326,-0.146,0.356,-3.013,0.656
1.083,0.093,-3.136,-3.23,1.522,1.661,-3.183,0.107,1.306,0.77,-0.691,-0.328,-0.15,0.355,-3.019,0.656
1.084,0.092,-3.142,-3.233,1.525,1.663,-3.188,0.105,1.302,0.769,-0.691,-0.328,-0.15,0.357,-3.026,0.659
1.085,0.093,-3.135,-3.228,1.52,1.661,-3.182,0.103,1.302,0.771,-0.69,-0.329,-0.148,0.356,-3.018,0.654
1.086,0.097,-3.134,-3.231,1.518,1.664,-3.183,0.107,1.307,0.774,-0.688,-0.328,-0.146,0.358,-3.016,0.661
1.087,0.096,-3.139,-3.235,1.522,1.665,-3.187,0.108,1.306,0.771,-0.687,-0.327,-0.147,0.359,-3.017,0.666
1.088,0.096,-3.131,-3.227,1.518,1.661,-3.179,0.109,1.307,0.775,-0.685,-0.327,-0.147,0.355,-3.014,0.657
1.089,0.096,-3.127,-3.224,1.516,1.659,-3.175,0.111,1.308,0.775,-0.685,-0.325,-0.146,0.355,-3.009,0.664
1.09,0.094,-3.133,-3.227,1.52,1.66,-3.18,0.111,1.309,0.774,-0.686,-0.326,-0.147,0.354,-3.007,0.669
1.091,0.095,-3.135,-3.23,1.52,1.663,-3.183,0.112,1.308,0.772,-0.688,-0.329,-0.15,0.354,-3.014,0.669
1.092,0.1,-3.131,-3.232,1.516,1.666,-3.182,0.108,1.307,0.77,-0.686,-0.326,-0.145,0.359,-3.014,0.67
1.093,0.095,-3.136,-3.232,1.521,1.663,-3.184,0.106,1.308,0.772,-0.686,-0.327,-0.149,0.355,-3.014,0.665
1.094,0.09,-3.139,-3.23,1.525,1.66,-3.184,0.107,1.304,0.771,-0.689,-0.331,-0.151,0.354,-3.013,0.666
1.095,0.1,-3.127,-3.228,1.514,1.664,-3.177,0.111,1.306,0.773,-0.685,-0.325,-0.145,0.357,-3.006,0.669
1.096,0.101,-3.126,-3.226,1.512,1.663,-3.176,0.115,1.31,0.775,-0.684,-0.326,-0.145,0.356,-3.007,0.671
1.097,0.098,-3.124,-3.221,1.514,1.659,-3.172,0.112,1.304,0.772,-0.686,-0.327,-0.144,0.356,-3.006,0.667
1.098,0.099,-3.126,-3.224,1.514,1.662,-3.175,0.107,1.3,0.768,-0.691,-0.329,-0.148,0.355,-3.005,0.666
1.099,0.101,-3.128,-3.229,1.514,1.665,-3.179,0.106,1.302,0.766,-0.693,-0.333,-0.15,0.355,-3.009,0.668
1.1,0.099,-3.127,-3.227,1.514,1.663,-3.177,0.108,1.305,0.766,-0.693,-0.333,-0.151,0.352,-3.011,0.666
1.101,0.095,-3.131,-3.225,1.518,1.66,-3.178,0.11,1.308,0.77,-0.693,-0.332,-0.151,0.353,-3.014,0.664
1.102,0.095,-3.133,-3.228,1.519,1.661,-3.18,0.111,1.308,0.77,-0.694,-0.333,-0.151,0.353,-3.014,0.662
1.103,0.096,-3.134,-3.229,1.52,1.663,-3.182,0.112,1.308,0.769,-0.695,-0.334,-0.153,0.35,-3.01,0.661
1.104,0.101,-3.131,-3.231,1.515,1.666,-3.181,0.11,1.305,0.769,-0.692,-0.331,-0.15,0.353,-3.014,0.66
1.105,0.104,-3.13,-3.234,1.512,1.669,-3.182,0.111,1.31,0.771,-0.693,-0.332,-0.151,0.352,-3.013,0.66
1.106,0.101,-3.136,-3.237,1.518,1.669,-3.187,0.111,1.308,0.773,-0.693,-0.333,-0.15,0.353,-3.016,0.665
1.107,0.094,-3.142,-3.236,1.524,1.665,-3.189,0.111,1.302,0.769,-0.693,-0.331,-0.15,0.352,-3.029,0.663
1.108,0.09,-3.139,-3.228,1.524,1.659,-3.183,0.111,1.306,0.771,-0.695,-0.334,-0.154,0.347,-3.026,0.656
1.109,0.093,-3.136,-3.229,1.522,1.661,-3.183,0.111,1.307,0.77,-0.695,-0.335,-0.156,0.346,-3.023,0.663
1.11,0.095,-3.134,-3.228,1.52,1.661,-3.181,0.111,1.31,0.774,-0.693,-0.335,-0.154,0.346,-3.018,0.663
1.111,0.096,-3.131,-3.227,1.518,1.661,-3.179,0.11,1.308,0.772,-0.693,-0.334,-0.151,0.349,-3.015,0.662
1.112,0.096,-3.135,-3.232,1.52,1.664,-3.183,0.113,1.308,0.772,-0.694,-0.332,-0.148,0.352,-3.02,0.667
1.113,0.096,-3.135,-3.232,1.52,1.663,-3.183,0.107,1.312,0.777,-0.692,-0.333,-0.148,0.352,-3.015,0.671
1.114,0.097,-3.132,-3.229,1.518,1.663,-3.181,0.107,1.31,0.774,-0.693,-0.335,-0.155,0.346,-3.013,0.668
1.115,0.098,-3.133,-3.231,1.518,1.664,-3.182,0.108,1.31,0.773,-0.696,-0.339,-0.16,0.344,-3.01,0.668
1.116,0.096,-3.136,-3.232,1.52,1.664,-3.184,0.108,1.308,0.767,-0.701,-0.342,-0.159,0.346,-3.01,0.677
1.117,0.097,-3.131,-3.227,1.517,1.661,-3.179,0.108,1.304,0.766,-0.7,-0.338,-0.155,0.348,-3.01,0.671
1.118,0.093,-3.131,-3.224,1.519,1.659,-3.178,0.104,1.3,0.763,-0.701,-0.34,-0.158,0.346,-3.011,0.665
1.119,0.092,-3.138,-3.229,1.523,1.661,-3.183,0.105,1.301,0.766,-0.701,-0.343,-0.16,0.345,-3.01,0.666
1.12,0.093,-3.135,-3.228,1.52,1.661,-3.181,0.106,1.302,0.765,-0.701,-0.341,-0.157,0.348,-3.01,0.666
1.121,0.089,-3.139,-3.228,1.524,1.659,-3.183,0.105,1.299,0.76,-0.707,-0.347,-0.164,0.344,-3.021,0.666
1.122,0.087,-3.14,-3.228,1.526,1.657,-3.184,0.106,1.306,0.764,-0.707,-0.347,-0.165,0.344,-3.018,0.667
1.123,0.086,-3.139,-3.224,1.526,1.655,-3.181,0.108,1.304,0.761,-0.705,-0.345,-0.161,0.344,-3.016,0.667
1.124,0.086,-3.14,-3.225,1.527,1.655,-3.183,0.103,1.296,0.759,-0.707,-0.346,-0.163,0.342,-3.018,0.663
1.125,0.086,-3.14,-3.225,1.528,1.655,-3.183,0.108,1.304,0.763,-0.705,-0.344,-0.161,0.344,-3.017,0.661
1.126,0.088,-3.136,-3.224,1.524,1.657,-3.18,0.113,1.302,0.762,-0.702,-0.342,-0.158,0.344,-3.014,0.663
1.127,0.09,-3.133,-3.223,1.522,1.657,-3.178,0.11,1.302,0.761,-0.703,-0.344,-0.159,0.343,-3.011,0.668
1.128,0.088,-3.136,-3.225,1.524,1.657,-3.18,0.114,1.308,0.765,-0.701,-0.344,-0.158,0.342,-3.017,0.669
1.129,0.09,-3.136,-3.227,1.523,1.659,-3.182,0.114,1.307,0.765,-0.702,-0.344,-0.159,0.341,-3.019,0.671
1.13,0.086,-3.137,-3.224,1.525,1.655,-3.18,0.116,1.306,0.764,-0.704,-0.347,-0.161,0.339,-3.02,0.672
1.131,0.087,-3.14,-3.228,1.526,1.657,-3.184,0.117,1.306,0.764,-0.702,-0.346,-0.16,0.34,-3.023,0.672
1.132,0.089,-3.138,-3.227,1.524,1.658,-3.182,0.113,1.304,0.761,-0.702,-0.346,-0.162,0.339,-3.022,0.671
1.133,0.089,-3.137,-3.226,1.524,1.657,-3.182,0.113,1.302,0.759,-0.705,-0.349,-0.163,0.339,-3.019,0.678
1.134,0.095,-3.134,-3.229,1.52,1.662,-3.182,0.113,1.304,0.76,-0.707,-0.349,-0.163,0.339,-3.019,0.678
1.135,0.096,-3.13,-3.227,1.517,1.661,-3.179,0.111,1.303,0.761,-0.706,-0.347,-0.162,0.338,-3.017,0.672
1.136,0.089,-3.136,-3.226,1.524,1.658,-3.182,0.112,1.303,0.76,-0.709,-0.351,-0.165,0.337,-3.015,0.678
1.137,0.086,-3.138,-3.224,1.526,1.655,-3.18,0.113,1.302,0.759,-0.711,-0.352,-0.167,0.335,-3.014,0.676
1.138,0.086,-3.136,-3.222,1.525,1.655,-3.179,0.111,1.297,0.758,-0.71,-0.352,-0.167,0.336,-3.011,0.677
1.139,0.088,-3.134,-3.221,1.522,1.655,-3.178,0.113,1.3,0.758,-0.711,-0.353,-0.166,0.336,-3.011,0.674
1.14,0.089,-3.131,-3.22,1.52,1.655,-3.176,0.108,1.294,0.757,-0.712,-0.351,-0.164,0.338,-3.011,0.67
1.141,0.086,-3.135,-3.221,1.524,1.653,-3.178,0.106,1.292,0.755,-0.713,-0.353,-0.165,0.339,-3.014,0.674
1.142,0.084,-3.137,-3.221,1.526,1.653,-3.179,0.11,1.299,0.756,-0.713,-0.355,-0.167,0.337,-3.014,0.67
1.143,0.083,-3.14,-3.223,1.528,1.653,-3.181,0.109,1.292,0.752,-0.715,-0.356,-0.167,0.335,-3.016,0.671
1.144,0.084,-3.141,-3.225,1.528,1.655,-3.183,0.106,1.296,0.754,-0.716,-0.357,-0.167,0.335,-3.016,0.672
1.145,0.089,-3.14,-3.23,1.526,1.659,-3.185,0.107,1.298,0.756,-0.717,-0.357,-0.168,0.335,-3.018,0.669
1.146,0.089,-3.137,-3.227,1.524,1.657,-3.182,0.11,1.294,0.753,-0.715,-0.357,-0.169,0.333,-3.019,0.67
1.147,0.083,-3.14,-3.223,1.529,1.653,-3.182,0.108,1.301,0.759,-0.71,-0.353,-0.167,0.334,-3.02,0.673
1.148,0.085,-3.137,-3.221,1.526,1.653,-3.179,0.117,1.302,0.762,-0.707,-0.351,-0.164,0.334,-3.018,0.671
1.149,0.089,-3.131,-3.221,1.521,1.655,-3.176,0.122,1.306,0.762,-0.709,-0.353,-0.166,0.33,-3.018,0.667
1.15,0.083,-3.141,-3.224,1.529,1.653,-3.183,0.118,1.305,0.756,-0.714,-0.356,-0.169,0.33,-3.03,0.67
1.151,0.079,-3.142,-3.22,1.531,1.65,-3.181,0.117,1.296,0.75,-0.716,-0.357,-0.168,0.329,-3.03,0.672
1.152,0.084,-3.137,-3.221,1.527,1.652,-3.179,0.115,1.3,0.758,-0.711,-0.354,-0.166,0.332,-3.027,0.671
1.153,0.088,-3.135,-3.223,1.524,1.655,-3.179,0.116,1.302,0.756,-0.715,-0.358,-0.168,0.331,-3.023,0.671
1.154,0.086,-3.135,-3.221,1.524,1.654,-3.178,0.117,1.297,0.752,-0.717,-0.356,-0.166,0.331,-3.011,0.683
1.155,0.085,-3.139,-3.224,1.527,1.655,-3.181,0.116,1.302,0.757,-0.715,-0.358,-0.167,0.331,-3.014,0.685
1.156,0.089,-3.138,-3.227,1.524,1.659,-3.183,0.117,1.303,0.755,-0.719,-0.362,-0.171,0.329,-3.014,0.681
1.157,0.083,-3.14,-3.223,1.529,1.653,-3.182,0.112,1.3,0.755,-0.719,-0.361,-0.172,0.33,-3.014,0.678
1.158,0.075,-3.15,-3.225,1.538,1.651,-3.188,0.108,1.296,0.75,-0.724,-0.367,-0.176,0.328,-3.018,0.685
1.159,0.09,-3.142,-3.232,1.526,1.661,-3.187,0.119,1.3,0.755,-0.719,-0.362,-0.172,0.332,-3.02,0.684
1.16,0.095,-3.127,-3.223,1.516,1.659,-3.175,0.118,1.298,0.757,-0.717,-0.36,-0.169,0.33,-3.018,0.669
1.161,0.088,-3.134,-3.223,1.523,1.655,-3.179,0.116,1.297,0.75,-0.722,-0.362,-0.172,0.329,-3.015,0.678
1.162,0.085,-3.143,-3.228,1.529,1.656,-3.185,0.114,1.296,0.749,-0.724,-0.365,-0.175,0.328,-3.015,0.687
1.163,0.077,-3.144,-3.22,1.533,1.649,-3.183,0.107,1.288,0.747,-0.726,-0.369,-0.179,0.325,-3.015,0.682
1.164,0.08,-3.147,-3.226,1.534,1.653,-3.186,0.113,1.296,0.75,-0.724,-0.368,-0.177,0.326,-3.019,0.678
1.165,0.091,-3.138,-3.229,1.524,1.66,-3.183,0.117,1.3,0.751,-0.72,-0.362,-0.173,0.327,-3.015,0.68
1.166,0.093,-3.132,-3.225,1.52,1.659,-3.179,0.116,1.298,0.75,-0.719,-0.36,-0.171,0.329,-3.015,0.682
1.167,0.089,-3.138,-3.227,1.524,1.658,-3.183,0.117,1.297,0.75,-0.72,-0.366,-0.172,0.329,-3.02,0.678
1.168,0.091,-3.136,-3.228,1.522,1.659,-3.182,0.118,1.295,0.748,-0.72,-0.364,-0.171,0.328,-3.022,0.676
1.169,0.093,-3.135,-3.228,1.521,1.661,-3.182,0.12,1.297,0.748,-0.722,-0.364,-0.173,0.326,-3.025,0.677
1.17,0.093,-3.131,-3.224,1.519,1.659,-3.178,0.121,1.296,0.751,-0.72,-0.364,-0.172,0.325,-3.022,0.677
1.171,0.091,-3.131,-3.223,1.52,1.657,-3.177,0.12,1.298,0.751,-0.72,-0.363,-0.17,0.327,-3.018,0.681
1.172,0.088,-3.134,-3.223,1.523,1.655,-3.179,0.118,1.296,0.748,-0.722,-0.366,-0.171,0.327,-3.014,0.686
1.173,0.092,-3.131,-3.224,1.52,1.658,-3.178,0.117,1.296,0.75,-0.722,-0.367,-0.171,0.327,-3.01,0.686
1.174,0.093,-3.133,-3.226,1.52,1.659,-3.179,0.118,1.298,0.75,-0.723,-0.367,-0.172,0.328,-3.015,0.689
1.175,0.09,-3.136,-3.227,1.523,1.659,-3.182,0.12,1.296,0.748,-0.724,-0.369,-0.174,0.328,-3.021,0.688
1.176,0.092,-3.136,-3.229,1.522,1.661,-3.183,0.12,1.295,0.747,-0.725,-0.369,-0.174,0.327,-3.021,0.684
1.177,0.089,-3.138,-3.227,1.524,1.659,-3.183,0.118,1.296,0.749,-0.726,-0.369,-0.175,0.326,-3.021,0.684
1.178,0.085,-3.142,-3.227,1.528,1.656,-3.184,0.117,1.295,0.748,-0.73,-0.373,-0.179,0.325,-3.018,0.686
1.179,0.087,-3.139,-3.226,1.526,1.657,-3.182,0.115,1.293,0.749,-0.729,-0.371,-0.177,0.326,-3.018,0.685
1.18,0.089,-3.134,-3.223,1.522,1.656,-3.179,0.118,1.295,0.746,-0.73,-0.371,-0.178,0.325,-3.017,0.683
1.181,0.09,-3.134,-3.224,1.522,1.657,-3.179,0.119,1.295,0.745,-0.73,-0.371,-0.178,0.325,-3.02,0.686
1.182,0.09,-3.134,-3.224,1.522,1.657,-3.179,0.116,1.294,0.747,-0.728,-0.372,-0.177,0.325,-3.016,0.685
1.183,0.086,-3.134,-3.22,1.524,1.653,-3.177,0.118,1.292,0.743,-0.73,-0.372,-0.18,0.322,-3.011,0.682
1.184,0.082,-3.139,-3.22,1.528,1.651,-3.179,0.12,1.296,0.745,-0.729,-0.371,-0.179,0.323,-3.018,0.684
1.185,0.082,-3.142,-3.224,1.53,1.653,-3.183,0.122,1.3,0.749,-0.73,-0.373,-0.18,0.322,-3.014,0.684
