'Elapsed time','i','ii','iii','avr','avl','avf','v1','v2','v3','v4','v5','v6','vx','vy','vz'
'hh:mm:ss.mmm','mV','mV','mV','mV','mV','mV','mV','mV','mV','mV','mV','mV','mV','mV','mV'
'0:00.000',0.376,-1.353,-1.73,0.488,1.052,-1.542,0.144,-0.399,-0.279,0.018,0.562,0.532,0.329,-1.026,-0.069
'0:00.001',0.381,-1.347,-1.728,0.482,1.054,-1.536,0.138,-0.389,-0.269,0.028,0.567,0.535,0.334,-1.02,-0.07
'0:00.002',0.388,-1.343,-1.73,0.477,1.059,-1.536,0.135,-0.382,-0.259,0.036,0.569,0.535,0.336,-1.018,-0.073
'0:00.003',0.386,-1.341,-1.727,0.477,1.056,-1.534,0.137,-0.373,-0.252,0.043,0.572,0.536,0.336,-1.016,-0.076
'0:00.004',0.388,-1.339,-1.726,0.475,1.057,-1.532,0.139,-0.369,-0.247,0.046,0.572,0.534,0.336,-1.012,-0.079
'0:00.005',0.391,-1.339,-1.73,0.474,1.06,-1.534,0.139,-0.364,-0.242,0.05,0.574,0.538,0.34,-1.014,-0.083
'0:00.006',0.393,-1.339,-1.732,0.473,1.062,-1.535,0.141,-0.357,-0.234,0.056,0.578,0.543,0.343,-1.014,-0.086
'0:00.007',0.392,-1.337,-1.728,0.472,1.06,-1.532,0.143,-0.35,-0.227,0.062,0.581,0.546,0.346,-1.011,-0.087
'0:00.008',0.39,-1.337,-1.726,0.473,1.058,-1.531,0.145,-0.345,-0.222,0.068,0.582,0.547,0.347,-1.013,-0.09
'0:00.009',0.391,-1.339,-1.73,0.474,1.06,-1.534,0.146,-0.341,-0.218,0.071,0.582,0.545,0.346,-1.014,-0.093
'0:00.010',0.392,-1.341,-1.732,0.474,1.062,-1.536,0.147,-0.336,-0.214,0.076,0.583,0.542,0.346,-1.015,-0.096
'0:00.011',0.391,-1.341,-1.731,0.475,1.06,-1.536,0.148,-0.332,-0.208,0.08,0.584,0.541,0.345,-1.014,-0.1
'0:00.012',0.392,-1.34,-1.732,0.474,1.062,-1.536,0.148,-0.328,-0.204,0.082,0.582,0.538,0.344,-1.012,-0.101
'0:00.013',0.395,-1.337,-1.732,0.471,1.063,-1.534,0.149,-0.323,-0.2,0.085,0.582,0.535,0.344,-1.011,-0.102
'0:00.014',0.398,-1.337,-1.734,0.469,1.066,-1.536,0.151,-0.319,-0.194,0.089,0.585,0.536,0.345,-1.014,-0.104
'0:00.015',0.401,-1.335,-1.736,0.468,1.068,-1.535,0.151,-0.314,-0.191,0.092,0.586,0.534,0.345,-1.014,-0.106
'0:00.016',0.396,-1.336,-1.732,0.47,1.065,-1.534,0.153,-0.31,-0.186,0.096,0.588,0.535,0.345,-1.012,-0.108
'0:00.017',0.394,-1.339,-1.732,0.472,1.063,-1.536,0.153,-0.308,-0.184,0.099,0.587,0.535,0.346,-1.013,-0.108
'0:00.018',0.397,-1.338,-1.734,0.47,1.065,-1.536,0.153,-0.305,-0.182,0.101,0.586,0.532,0.347,-1.014,-0.11
'0:00.019',0.395,-1.339,-1.734,0.471,1.065,-1.536,0.154,-0.301,-0.178,0.104,0.59,0.539,0.352,-1.012,-0.111
'0:00.020',0.397,-1.337,-1.734,0.469,1.065,-1.535,0.154,-0.297,-0.173,0.108,0.592,0.544,0.356,-1.008,-0.111
'0:00.021',0.404,-1.336,-1.74,0.466,1.071,-1.538,0.153,-0.295,-0.171,0.11,0.592,0.539,0.355,-1.008,-0.113
'0:00.022',0.402,-1.338,-1.74,0.468,1.071,-1.539,0.151,-0.293,-0.17,0.112,0.592,0.537,0.354,-1.011,-0.114
'0:00.023',0.401,-1.335,-1.736,0.467,1.068,-1.535,0.153,-0.29,-0.167,0.116,0.594,0.536,0.354,-1.01,-0.116
'0:00.024',0.412,-1.325,-1.738,0.456,1.075,-1.531,0.157,-0.284,-0.161,0.119,0.597,0.538,0.353,-1.01,-0.116
'0:00.025',0.419,-1.319,-1.738,0.45,1.079,-1.528,0.158,-0.28,-0.157,0.123,0.599,0.542,0.353,-1.008,-0.117
'0:00.026',0.416,-1.322,-1.738,0.453,1.077,-1.53,0.156,-0.281,-0.157,0.123,0.598,0.54,0.354,-1.008,-0.118
'0:00.027',0.415,-1.323,-1.738,0.454,1.077,-1.53,0.155,-0.278,-0.154,0.126,0.6,0.54,0.356,-1.009,-0.118
'0:00.028',0.414,-1.322,-1.737,0.454,1.076,-1.53,0.156,-0.275,-0.15,0.13,0.603,0.541,0.357,-1.008,-0.119
'0:00.029',0.415,-1.321,-1.737,0.453,1.076,-1.529,0.155,-0.272,-0.147,0.133,0.603,0.541,0.358,-1.007,-0.12
'0:00.030',0.417,-1.321,-1.739,0.452,1.078,-1.53,0.158,-0.269,-0.144,0.136,0.604,0.541,0.359,-1.006,-0.121
'0:00.031',0.421,-1.32,-1.742,0.449,1.081,-1.53,0.158,-0.269,-0.143,0.136,0.605,0.542,0.36,-1.006,-0.123
'0:00.032',0.419,-1.322,-1.741,0.452,1.08,-1.531,0.156,-0.267,-0.142,0.139,0.606,0.54,0.361,-1.008,-0.124
'0:00.033',0.415,-1.324,-1.74,0.454,1.077,-1.532,0.157,-0.265,-0.14,0.141,0.605,0.538,0.359,-1.009,-0.126
'0:00.034',0.42,-1.323,-1.742,0.451,1.081,-1.532,0.158,-0.263,-0.137,0.141,0.606,0.539,0.359,-1.007,-0.126
'0:00.035',0.424,-1.321,-1.746,0.449,1.085,-1.533,0.157,-0.262,-0.136,0.142,0.607,0.54,0.361,-1.008,-0.127
'0:00.036',0.429,-1.319,-1.748,0.445,1.089,-1.534,0.156,-0.26,-0.134,0.143,0.607,0.542,0.363,-1.007,-0.127
'0:00.037',0.43,-1.321,-1.751,0.445,1.091,-1.536,0.158,-0.257,-0.131,0.146,0.609,0.544,0.366,-1.006,-0.128
'0:00.038',0.433,-1.319,-1.752,0.443,1.093,-1.535,0.159,-0.254,-0.128,0.15,0.611,0.545,0.367,-1.004,-0.129
'0:00.039',0.435,-1.316,-1.751,0.44,1.093,-1.534,0.159,-0.253,-0.126,0.152,0.612,0.546,0.369,-1.003,-0.127
'0:00.040',0.436,-1.315,-1.752,0.439,1.094,-1.533,0.157,-0.251,-0.125,0.153,0.612,0.545,0.369,-1.004,-0.128
'0:00.041',0.434,-1.317,-1.751,0.442,1.093,-1.534,0.159,-0.248,-0.122,0.155,0.611,0.543,0.365,-1.006,-0.13
'0:00.042',0.434,-1.317,-1.751,0.441,1.093,-1.534,0.16,-0.246,-0.121,0.159,0.613,0.542,0.365,-1.007,-0.131
'0:00.043',0.44,-1.312,-1.752,0.436,1.095,-1.532,0.161,-0.245,-0.119,0.159,0.614,0.541,0.366,-1.008,-0.132
'0:00.044',0.438,-1.312,-1.751,0.437,1.095,-1.532,0.163,-0.242,-0.116,0.161,0.614,0.541,0.366,-1.008,-0.132
'0:00.045',0.44,-1.312,-1.752,0.436,1.095,-1.532,0.162,-0.241,-0.115,0.165,0.614,0.542,0.366,-1.004,-0.133
'0:00.046',0.442,-1.31,-1.752,0.434,1.097,-1.531,0.16,-0.239,-0.113,0.166,0.615,0.543,0.368,-1.004,-0.134
'0:00.047',0.44,-1.312,-1.752,0.436,1.095,-1.532,0.16,-0.237,-0.111,0.168,0.617,0.542,0.368,-1.002,-0.136
'0:00.048',0.44,-1.313,-1.752,0.436,1.096,-1.532,0.161,-0.237,-0.11,0.171,0.618,0.543,0.369,-1.002,-0.136
'0:00.049',0.439,-1.313,-1.753,0.437,1.096,-1.533,0.161,-0.235,-0.107,0.172,0.618,0.544,0.372,-1.003,-0.136
'0:00.050',0.439,-1.313,-1.752,0.436,1.095,-1.532,0.163,-0.234,-0.105,0.174,0.619,0.545,0.371,-1.003,-0.137
'0:00.051',0.441,-1.313,-1.754,0.436,1.097,-1.534,0.163,-0.233,-0.105,0.174,0.621,0.545,0.372,-1.005,-0.139
'0:00.052',0.438,-1.317,-1.754,0.439,1.096,-1.535,0.164,-0.232,-0.103,0.174,0.623,0.543,0.371,-1.005,-0.139
'0:00.053',0.438,-1.317,-1.755,0.44,1.097,-1.536,0.164,-0.229,-0.101,0.176,0.622,0.544,0.372,-1.005,-0.138
'0:00.054',0.44,-1.317,-1.756,0.438,1.099,-1.536,0.162,-0.228,-0.1,0.176,0.622,0.543,0.373,-1.005,-0.139
'0:00.055',0.44,-1.314,-1.754,0.436,1.097,-1.534,0.162,-0.227,-0.098,0.178,0.623,0.543,0.372,-1.003,-0.139
'0:00.056',0.444,-1.31,-1.754,0.432,1.099,-1.532,0.162,-0.224,-0.096,0.18,0.623,0.546,0.374,-1,-0.14
'0:00.057',0.445,-1.31,-1.754,0.432,1.099,-1.532,0.164,-0.221,-0.092,0.182,0.624,0.547,0.376,-1.001,-0.141
'0:00.058',0.445,-1.311,-1.756,0.433,1.101,-1.534,0.164,-0.22,-0.091,0.183,0.626,0.548,0.377,-1.003,-0.142
'0:00.059',0.447,-1.311,-1.758,0.432,1.102,-1.534,0.163,-0.218,-0.09,0.185,0.627,0.547,0.378,-1.002,-0.143
'0:00.060',0.447,-1.311,-1.758,0.432,1.102,-1.534,0.164,-0.216,-0.087,0.186,0.627,0.546,0.378,-1.002,-0.142
'0:00.061',0.447,-1.31,-1.757,0.431,1.102,-1.533,0.162,-0.217,-0.087,0.188,0.626,0.545,0.379,-1.003,-0.142
'0:00.062',0.449,-1.31,-1.76,0.43,1.104,-1.534,0.161,-0.216,-0.086,0.19,0.627,0.548,0.381,-1.004,-0.143
'0:00.063',0.451,-1.31,-1.761,0.429,1.106,-1.536,0.163,-0.211,-0.082,0.194,0.63,0.547,0.382,-1.003,-0.143
'0:00.064',0.451,-1.31,-1.76,0.429,1.105,-1.534,0.164,-0.209,-0.079,0.197,0.63,0.547,0.382,-1.002,-0.145
'0:00.065',0.448,-1.31,-1.758,0.43,1.103,-1.534,0.163,-0.208,-0.078,0.196,0.63,0.548,0.382,-1.004,-0.146
'0:00.066',0.449,-1.308,-1.756,0.429,1.103,-1.532,0.162,-0.206,-0.076,0.196,0.629,0.547,0.382,-1.002,-0.145
'0:00.067',0.454,-1.304,-1.758,0.425,1.106,-1.531,0.162,-0.204,-0.074,0.199,0.63,0.547,0.383,-1.002,-0.146
'0:00.068',0.453,-1.302,-1.754,0.424,1.103,-1.528,0.163,-0.203,-0.073,0.202,0.63,0.548,0.385,-0.999,-0.147
'0:00.069',0.451,-1.304,-1.754,0.426,1.103,-1.528,0.163,-0.201,-0.072,0.204,0.631,0.55,0.387,-1,-0.147
'0:00.070',0.454,-1.303,-1.756,0.424,1.105,-1.53,0.163,-0.198,-0.069,0.208,0.634,0.55,0.386,-1,-0.149
'0:00.071',0.454,-1.302,-1.756,0.424,1.105,-1.528,0.163,-0.196,-0.067,0.211,0.634,0.549,0.387,-1,-0.15
'0:00.072',0.455,-1.302,-1.756,0.424,1.105,-1.529,0.162,-0.195,-0.065,0.212,0.634,0.548,0.388,-1,-0.151
'0:00.073',0.454,-1.302,-1.756,0.424,1.105,-1.528,0.162,-0.193,-0.062,0.213,0.634,0.548,0.388,-1,-0.152
'0:00.074',0.453,-1.302,-1.755,0.424,1.104,-1.528,0.162,-0.19,-0.059,0.216,0.636,0.548,0.389,-1,-0.153
'0:00.075',0.453,-1.298,-1.752,0.422,1.103,-1.525,0.165,-0.186,-0.056,0.222,0.64,0.549,0.389,-0.999,-0.154
'0:00.076',0.456,-1.299,-1.754,0.421,1.105,-1.526,0.166,-0.182,-0.052,0.224,0.641,0.55,0.389,-0.998,-0.155
'0:00.077',0.459,-1.299,-1.758,0.419,1.109,-1.528,0.165,-0.183,-0.053,0.223,0.639,0.549,0.39,-0.997,-0.157
'0:00.078',0.459,-1.297,-1.756,0.418,1.107,-1.526,0.166,-0.181,-0.051,0.226,0.641,0.551,0.39,-0.996,-0.158
'0:00.079',0.459,-1.296,-1.755,0.418,1.107,-1.525,0.166,-0.176,-0.045,0.229,0.642,0.552,0.391,-0.996,-0.159
'0:00.080',0.46,-1.295,-1.755,0.417,1.107,-1.524,0.167,-0.175,-0.044,0.231,0.643,0.552,0.393,-0.995,-0.16
'0:00.081',0.463,-1.296,-1.759,0.416,1.111,-1.528,0.165,-0.173,-0.043,0.233,0.645,0.554,0.396,-0.995,-0.16
'0:00.082',0.465,-1.297,-1.762,0.416,1.113,-1.529,0.165,-0.171,-0.04,0.236,0.646,0.556,0.398,-0.996,-0.162
'0:00.083',0.463,-1.298,-1.762,0.417,1.113,-1.53,0.166,-0.169,-0.037,0.238,0.647,0.556,0.396,-0.999,-0.163
'0:00.084',0.461,-1.3,-1.76,0.419,1.111,-1.53,0.166,-0.166,-0.035,0.24,0.647,0.555,0.397,-0.998,-0.163
'0:00.085',0.464,-1.298,-1.762,0.417,1.113,-1.53,0.165,-0.163,-0.032,0.241,0.648,0.557,0.399,-0.997,-0.163
'0:00.086',0.469,-1.296,-1.766,0.413,1.117,-1.53,0.166,-0.163,-0.029,0.244,0.65,0.559,0.402,-0.998,-0.162
'0:00.087',0.468,-1.296,-1.764,0.413,1.115,-1.53,0.168,-0.157,-0.024,0.247,0.651,0.558,0.402,-0.997,-0.164
'0:00.088',0.466,-1.297,-1.762,0.415,1.114,-1.53,0.168,-0.153,-0.021,0.249,0.652,0.559,0.402,-0.998,-0.164
'0:00.089',0.469,-1.296,-1.764,0.413,1.116,-1.53,0.167,-0.152,-0.018,0.253,0.654,0.562,0.405,-0.997,-0.164
'0:00.090',0.471,-1.292,-1.764,0.41,1.117,-1.528,0.17,-0.148,-0.015,0.256,0.656,0.562,0.406,-0.998,-0.166
'0:00.091',0.472,-1.291,-1.763,0.409,1.117,-1.527,0.171,-0.144,-0.012,0.26,0.657,0.561,0.406,-1,-0.167
'0:00.092',0.474,-1.292,-1.766,0.408,1.12,-1.528,0.172,-0.141,-0.007,0.262,0.658,0.562,0.406,-0.998,-0.169
'0:00.093',0.476,-1.294,-1.77,0.408,1.123,-1.531,0.173,-0.139,-0.005,0.265,0.659,0.562,0.406,-1,-0.17
'0:00.094',0.477,-1.294,-1.771,0.408,1.124,-1.532,0.174,-0.135,-0.003,0.268,0.662,0.562,0.407,-1.002,-0.171
'0:00.095',0.48,-1.292,-1.772,0.405,1.126,-1.532,0.174,-0.132,0.001,0.27,0.666,0.564,0.41,-0.999,-0.172
'0:00.096',0.485,-1.29,-1.775,0.402,1.131,-1.532,0.173,-0.129,0.005,0.275,0.668,0.564,0.411,-0.999,-0.172
'0:00.097',0.486,-1.288,-1.774,0.401,1.13,-1.531,0.174,-0.125,0.009,0.277,0.67,0.567,0.413,-0.998,-0.173
'0:00.098',0.485,-1.288,-1.774,0.401,1.13,-1.53,0.173,-0.123,0.011,0.279,0.669,0.567,0.414,-0.996,-0.174
'0:00.099',0.487,-1.29,-1.777,0.401,1.132,-1.533,0.172,-0.121,0.014,0.281,0.67,0.566,0.414,-0.999,-0.175
'0:00.100',0.487,-1.29,-1.776,0.401,1.132,-1.532,0.173,-0.117,0.018,0.286,0.671,0.565,0.414,-0.997,-0.177
'0:00.101',0.487,-1.288,-1.774,0.401,1.131,-1.531,0.174,-0.113,0.021,0.29,0.67,0.565,0.414,-0.997,-0.179
'0:00.102',0.489,-1.286,-1.775,0.398,1.132,-1.53,0.174,-0.11,0.023,0.292,0.671,0.562,0.416,-0.997,-0.18
'0:00.103',0.491,-1.285,-1.777,0.397,1.135,-1.53,0.175,-0.106,0.028,0.295,0.673,0.565,0.417,-0.995,-0.182
'0:00.104',0.494,-1.284,-1.778,0.395,1.136,-1.53,0.177,-0.102,0.033,0.299,0.676,0.569,0.42,-0.996,-0.183
'0:00.105',0.496,-1.283,-1.779,0.393,1.137,-1.53,0.176,-0.099,0.035,0.301,0.677,0.571,0.424,-0.995,-0.183
'0:00.106',0.494,-1.283,-1.778,0.394,1.137,-1.53,0.177,-0.094,0.039,0.303,0.679,0.572,0.425,-0.995,-0.184
'0:00.107',0.496,-1.282,-1.778,0.392,1.137,-1.53,0.178,-0.09,0.043,0.307,0.681,0.573,0.428,-0.993,-0.185
'0:00.108',0.497,-1.283,-1.78,0.393,1.139,-1.532,0.177,-0.087,0.046,0.31,0.683,0.571,0.429,-0.994,-0.188
'0:00.109',0.498,-1.281,-1.779,0.391,1.139,-1.53,0.176,-0.084,0.05,0.314,0.684,0.571,0.431,-0.994,-0.19
'0:00.110',0.5,-1.278,-1.779,0.389,1.139,-1.528,0.177,-0.079,0.056,0.32,0.69,0.574,0.435,-0.993,-0.192
'0:00.111',0.503,-1.277,-1.781,0.387,1.142,-1.529,0.177,-0.074,0.059,0.323,0.693,0.574,0.437,-0.992,-0.194
'0:00.112',0.508,-1.275,-1.783,0.383,1.145,-1.528,0.177,-0.07,0.062,0.327,0.694,0.575,0.44,-0.988,-0.196
'0:00.113',0.508,-1.277,-1.785,0.384,1.147,-1.531,0.178,-0.066,0.068,0.332,0.695,0.574,0.44,-0.989,-0.196
'0:00.114',0.513,-1.274,-1.788,0.381,1.151,-1.53,0.177,-0.063,0.071,0.334,0.698,0.573,0.441,-0.988,-0.198
'0:00.115',0.514,-1.274,-1.788,0.38,1.151,-1.53,0.178,-0.058,0.076,0.338,0.699,0.574,0.443,-0.988,-0.201
'0:00.116',0.508,-1.276,-1.784,0.384,1.147,-1.53,0.179,-0.053,0.08,0.341,0.699,0.572,0.44,-0.99,-0.201
'0:00.117',0.514,-1.273,-1.787,0.379,1.151,-1.53,0.18,-0.051,0.085,0.345,0.702,0.573,0.442,-0.989,-0.202
'0:00.118',0.513,-1.274,-1.786,0.381,1.149,-1.53,0.181,-0.044,0.091,0.348,0.704,0.576,0.444,-0.988,-0.204
'0:00.119',0.512,-1.273,-1.786,0.38,1.149,-1.529,0.181,-0.039,0.096,0.351,0.706,0.576,0.444,-0.987,-0.206
'0:00.120',0.518,-1.269,-1.788,0.375,1.153,-1.528,0.183,-0.034,0.102,0.357,0.709,0.575,0.446,-0.984,-0.208
'0:00.121',0.52,-1.266,-1.787,0.373,1.153,-1.526,0.185,-0.027,0.107,0.361,0.711,0.576,0.446,-0.981,-0.211
'0:00.122',0.524,-1.263,-1.788,0.369,1.156,-1.525,0.184,-0.024,0.112,0.366,0.712,0.576,0.448,-0.982,-0.212
'0:00.123',0.523,-1.264,-1.787,0.37,1.155,-1.525,0.183,-0.021,0.115,0.37,0.712,0.576,0.448,-0.985,-0.213
'0:00.124',0.526,-1.264,-1.79,0.369,1.158,-1.527,0.184,-0.015,0.119,0.374,0.714,0.577,0.452,-0.987,-0.214
'0:00.125',0.53,-1.262,-1.792,0.365,1.161,-1.526,0.185,-0.009,0.126,0.382,0.718,0.58,0.457,-0.983,-0.217
'0:00.126',0.532,-1.26,-1.792,0.363,1.163,-1.526,0.187,-0.003,0.133,0.388,0.721,0.581,0.457,-0.979,-0.222
'0:00.127',0.533,-1.26,-1.793,0.363,1.163,-1.526,0.189,0.003,0.138,0.392,0.722,0.581,0.457,-0.976,-0.224
'0:00.128',0.532,-1.263,-1.795,0.365,1.163,-1.529,0.189,0.006,0.141,0.395,0.722,0.58,0.457,-0.978,-0.226
'0:00.129',0.532,-1.262,-1.796,0.365,1.164,-1.529,0.188,0.013,0.149,0.401,0.725,0.582,0.459,-0.98,-0.228
'0:00.130',0.535,-1.259,-1.794,0.361,1.165,-1.526,0.19,0.019,0.155,0.406,0.728,0.583,0.463,-0.979,-0.231
'0:00.131',0.536,-1.259,-1.796,0.36,1.167,-1.528,0.192,0.026,0.162,0.411,0.731,0.583,0.463,-0.977,-0.233
'0:00.132',0.535,-1.26,-1.796,0.362,1.167,-1.528,0.194,0.033,0.169,0.417,0.733,0.583,0.463,-0.976,-0.236
'0:00.133',0.533,-1.261,-1.794,0.363,1.164,-1.528,0.195,0.039,0.174,0.423,0.736,0.587,0.466,-0.976,-0.237
'0:00.134',0.531,-1.26,-1.792,0.364,1.162,-1.526,0.195,0.044,0.181,0.428,0.738,0.59,0.469,-0.974,-0.238
'0:00.135',0.536,-1.261,-1.798,0.362,1.167,-1.529,0.196,0.051,0.186,0.43,0.737,0.586,0.469,-0.977,-0.242
'0:00.136',0.542,-1.259,-1.802,0.358,1.173,-1.53,0.198,0.058,0.193,0.436,0.739,0.588,0.471,-0.979,-0.244
'0:00.137',0.545,-1.256,-1.802,0.355,1.173,-1.529,0.2,0.066,0.201,0.442,0.741,0.589,0.473,-0.976,-0.247
'0:00.138',0.545,-1.256,-1.802,0.355,1.174,-1.529,0.201,0.072,0.208,0.447,0.744,0.588,0.475,-0.975,-0.248
'0:00.139',0.548,-1.256,-1.804,0.353,1.177,-1.53,0.202,0.08,0.215,0.453,0.745,0.591,0.479,-0.974,-0.25
'0:00.140',0.549,-1.256,-1.806,0.352,1.179,-1.531,0.202,0.086,0.222,0.458,0.746,0.591,0.479,-0.975,-0.254
'0:00.141',0.552,-1.254,-1.806,0.351,1.179,-1.53,0.204,0.091,0.228,0.465,0.75,0.591,0.481,-0.974,-0.257
'0:00.142',0.556,-1.254,-1.81,0.348,1.183,-1.532,0.205,0.098,0.234,0.47,0.751,0.593,0.485,-0.973,-0.259
'0:00.143',0.556,-1.254,-1.81,0.348,1.183,-1.532,0.206,0.103,0.239,0.476,0.753,0.593,0.486,-0.973,-0.262
'0:00.144',0.559,-1.25,-1.81,0.345,1.185,-1.53,0.207,0.11,0.246,0.482,0.755,0.593,0.489,-0.972,-0.263
'0:00.145',0.564,-1.248,-1.812,0.342,1.188,-1.53,0.208,0.117,0.253,0.488,0.758,0.596,0.493,-0.971,-0.266
'0:00.146',0.567,-1.246,-1.813,0.34,1.19,-1.53,0.21,0.123,0.26,0.493,0.761,0.596,0.494,-0.969,-0.269
'0:00.147',0.573,-1.243,-1.817,0.335,1.194,-1.53,0.21,0.129,0.267,0.499,0.763,0.597,0.497,-0.968,-0.271
'0:00.148',0.577,-1.242,-1.82,0.333,1.198,-1.531,0.211,0.137,0.274,0.505,0.764,0.598,0.499,-0.966,-0.273
'0:00.149',0.578,-1.245,-1.823,0.334,1.2,-1.534,0.212,0.142,0.279,0.51,0.765,0.598,0.501,-0.968,-0.274
'0:00.150',0.584,-1.242,-1.825,0.329,1.204,-1.533,0.213,0.147,0.285,0.517,0.768,0.601,0.505,-0.968,-0.277
'0:00.151',0.585,-1.238,-1.823,0.326,1.204,-1.53,0.215,0.155,0.292,0.523,0.771,0.602,0.506,-0.966,-0.281
'0:00.152',0.586,-1.236,-1.822,0.325,1.204,-1.529,0.218,0.162,0.299,0.529,0.773,0.603,0.508,-0.964,-0.283
'0:00.153',0.591,-1.234,-1.825,0.321,1.208,-1.529,0.222,0.17,0.307,0.535,0.778,0.607,0.511,-0.958,-0.286
'0:00.154',0.592,-1.231,-1.823,0.319,1.208,-1.528,0.222,0.176,0.314,0.542,0.78,0.607,0.512,-0.958,-0.289
'0:00.155',0.596,-1.229,-1.825,0.317,1.21,-1.527,0.224,0.182,0.321,0.548,0.785,0.608,0.515,-0.958,-0.291
'0:00.156',0.596,-1.227,-1.823,0.315,1.21,-1.525,0.226,0.19,0.329,0.554,0.789,0.608,0.515,-0.958,-0.295
'0:00.157',0.598,-1.222,-1.821,0.312,1.21,-1.522,0.23,0.198,0.336,0.562,0.792,0.611,0.518,-0.96,-0.299
'0:00.158',0.601,-1.22,-1.822,0.309,1.212,-1.521,0.234,0.203,0.342,0.567,0.794,0.611,0.519,-0.959,-0.301
'0:00.159',0.6,-1.222,-1.823,0.31,1.212,-1.522,0.234,0.208,0.345,0.57,0.793,0.609,0.519,-0.956,-0.303
'0:00.160',0.6,-1.225,-1.825,0.312,1.212,-1.524,0.233,0.211,0.349,0.574,0.794,0.607,0.52,-0.957,-0.305
'0:00.161',0.602,-1.224,-1.827,0.31,1.214,-1.525,0.234,0.217,0.355,0.578,0.795,0.609,0.522,-0.959,-0.307
'0:00.162',0.605,-1.22,-1.826,0.307,1.216,-1.523,0.237,0.225,0.362,0.585,0.8,0.613,0.526,-0.956,-0.31
'0:00.163',0.604,-1.22,-1.823,0.307,1.214,-1.522,0.24,0.232,0.367,0.589,0.804,0.614,0.526,-0.954,-0.314
'0:00.164',0.605,-1.22,-1.825,0.307,1.216,-1.522,0.241,0.237,0.374,0.594,0.806,0.614,0.527,-0.954,-0.317
'0:00.165',0.607,-1.222,-1.829,0.307,1.218,-1.525,0.243,0.241,0.379,0.598,0.807,0.613,0.527,-0.952,-0.32
'0:00.166',0.62,-1.213,-1.833,0.296,1.227,-1.523,0.244,0.249,0.385,0.604,0.81,0.614,0.529,-0.951,-0.322
'0:00.167',0.63,-1.202,-1.833,0.286,1.232,-1.518,0.247,0.256,0.393,0.611,0.815,0.615,0.53,-0.95,-0.324
'0:00.168',0.623,-1.208,-1.831,0.292,1.228,-1.52,0.246,0.258,0.395,0.613,0.814,0.612,0.528,-0.953,-0.325
'0:00.169',0.622,-1.212,-1.833,0.294,1.228,-1.522,0.248,0.263,0.4,0.615,0.816,0.61,0.527,-0.952,-0.327
'0:00.170',0.623,-1.21,-1.833,0.293,1.228,-1.522,0.251,0.268,0.405,0.619,0.821,0.614,0.531,-0.949,-0.331
'0:00.171',0.623,-1.213,-1.836,0.294,1.23,-1.524,0.252,0.274,0.409,0.623,0.825,0.616,0.534,-0.954,-0.332
'0:00.172',0.625,-1.212,-1.837,0.293,1.231,-1.524,0.252,0.277,0.413,0.625,0.825,0.616,0.535,-0.954,-0.333
'0:00.173',0.626,-1.212,-1.839,0.292,1.233,-1.525,0.253,0.281,0.416,0.627,0.828,0.619,0.537,-0.953,-0.335
'0:00.174',0.627,-1.21,-1.838,0.291,1.232,-1.524,0.258,0.288,0.424,0.633,0.832,0.623,0.539,-0.951,-0.338
'0:00.175',0.625,-1.21,-1.835,0.292,1.23,-1.522,0.259,0.292,0.429,0.636,0.833,0.625,0.542,-0.95,-0.339
'0:00.176',0.623,-1.212,-1.836,0.294,1.23,-1.524,0.258,0.294,0.43,0.639,0.833,0.625,0.543,-0.951,-0.34
'0:00.177',0.625,-1.212,-1.838,0.293,1.232,-1.525,0.258,0.297,0.433,0.642,0.836,0.626,0.545,-0.95,-0.342
'0:00.178',0.628,-1.212,-1.84,0.291,1.234,-1.526,0.261,0.304,0.44,0.647,0.836,0.626,0.547,-0.952,-0.344
'0:00.179',0.631,-1.21,-1.841,0.289,1.236,-1.526,0.261,0.305,0.442,0.647,0.837,0.625,0.546,-0.95,-0.344
'0:00.180',0.632,-1.21,-1.843,0.288,1.238,-1.526,0.263,0.308,0.444,0.649,0.84,0.626,0.547,-0.95,-0.347
'0:00.181',0.631,-1.209,-1.841,0.288,1.236,-1.524,0.267,0.314,0.45,0.654,0.84,0.624,0.546,-0.949,-0.349
'0:00.182',0.631,-1.208,-1.839,0.288,1.236,-1.524,0.27,0.317,0.453,0.655,0.841,0.623,0.544,-0.948,-0.351
'0:00.183',0.628,-1.213,-1.841,0.292,1.235,-1.527,0.272,0.319,0.456,0.659,0.842,0.625,0.545,-0.952,-0.352
'0:00.184',0.629,-1.212,-1.841,0.291,1.236,-1.526,0.272,0.324,0.458,0.662,0.843,0.628,0.547,-0.951,-0.353
'0:00.185',0.631,-1.211,-1.843,0.289,1.238,-1.527,0.273,0.325,0.461,0.664,0.842,0.627,0.547,-0.951,-0.355
'0:00.186',0.631,-1.211,-1.843,0.289,1.238,-1.527,0.272,0.324,0.461,0.663,0.84,0.625,0.545,-0.949,-0.356
'0:00.187',0.63,-1.213,-1.844,0.291,1.238,-1.528,0.273,0.329,0.463,0.662,0.839,0.625,0.545,-0.948,-0.356
'0:00.188',0.628,-1.216,-1.845,0.293,1.237,-1.53,0.275,0.332,0.468,0.666,0.84,0.626,0.545,-0.949,-0.358
'0:00.189',0.629,-1.212,-1.843,0.291,1.236,-1.528,0.275,0.334,0.469,0.666,0.839,0.625,0.544,-0.946,-0.358
'0:00.190',0.63,-1.212,-1.843,0.29,1.237,-1.527,0.275,0.333,0.469,0.666,0.839,0.625,0.546,-0.946,-0.357
'0:00.191',0.632,-1.208,-1.841,0.287,1.237,-1.524,0.277,0.336,0.472,0.669,0.84,0.628,0.549,-0.947,-0.359
'0:00.192',0.632,-1.206,-1.839,0.286,1.236,-1.522,0.277,0.338,0.473,0.67,0.84,0.626,0.547,-0.946,-0.361
'0:00.193',0.628,-1.207,-1.836,0.288,1.232,-1.522,0.277,0.335,0.472,0.67,0.84,0.625,0.546,-0.945,-0.361
'0:00.194',0.629,-1.207,-1.837,0.288,1.233,-1.522,0.276,0.335,0.47,0.668,0.838,0.623,0.546,-0.945,-0.36
'0:00.195',0.63,-1.206,-1.837,0.287,1.234,-1.522,0.276,0.334,0.469,0.667,0.838,0.621,0.544,-0.946,-0.361
'0:00.196',0.628,-1.206,-1.835,0.288,1.232,-1.52,0.276,0.332,0.468,0.666,0.839,0.623,0.545,-0.946,-0.361
'0:00.197',0.632,-1.2,-1.833,0.283,1.233,-1.516,0.275,0.33,0.468,0.666,0.841,0.625,0.548,-0.945,-0.361
'0:00.198',0.635,-1.196,-1.831,0.28,1.234,-1.513,0.274,0.329,0.467,0.667,0.842,0.626,0.551,-0.941,-0.359
'0:00.199',0.633,-1.198,-1.832,0.282,1.233,-1.515,0.273,0.325,0.462,0.664,0.841,0.627,0.551,-0.941,-0.357
'0:00.200',0.632,-1.198,-1.831,0.282,1.232,-1.514,0.271,0.32,0.459,0.662,0.841,0.628,0.551,-0.938,-0.356
'0:00.201',0.631,-1.196,-1.828,0.282,1.23,-1.512,0.27,0.317,0.456,0.662,0.842,0.628,0.553,-0.933,-0.357
'0:00.202',0.629,-1.194,-1.823,0.282,1.226,-1.508,0.268,0.313,0.452,0.66,0.844,0.631,0.553,-0.931,-0.356
'0:00.203',0.626,-1.194,-1.821,0.284,1.224,-1.508,0.267,0.307,0.447,0.658,0.846,0.631,0.553,-0.932,-0.354
'0:00.204',0.621,-1.196,-1.817,0.287,1.219,-1.506,0.266,0.299,0.439,0.652,0.844,0.629,0.552,-0.933,-0.353
'0:00.205',0.615,-1.198,-1.813,0.291,1.215,-1.506,0.263,0.29,0.43,0.645,0.842,0.63,0.551,-0.934,-0.35
'0:00.206',0.616,-1.196,-1.812,0.29,1.214,-1.504,0.261,0.282,0.422,0.641,0.843,0.63,0.549,-0.934,-0.347
'0:00.207',0.619,-1.191,-1.81,0.286,1.214,-1.5,0.258,0.274,0.414,0.638,0.844,0.633,0.55,-0.934,-0.344
'0:00.208',0.618,-1.193,-1.81,0.287,1.214,-1.502,0.254,0.265,0.405,0.631,0.843,0.634,0.55,-0.933,-0.34
'0:00.209',0.614,-1.196,-1.811,0.291,1.212,-1.504,0.252,0.254,0.395,0.623,0.84,0.634,0.548,-0.933,-0.335
'0:00.210',0.611,-1.197,-1.808,0.292,1.21,-1.502,0.248,0.242,0.383,0.616,0.839,0.635,0.548,-0.934,-0.332
'0:00.211',0.609,-1.196,-1.804,0.292,1.207,-1.5,0.246,0.232,0.372,0.609,0.837,0.635,0.547,-0.931,-0.328
'0:00.212',0.61,-1.19,-1.8,0.289,1.206,-1.495,0.244,0.221,0.36,0.599,0.833,0.634,0.544,-0.927,-0.323
'0:00.213',0.604,-1.19,-1.794,0.292,1.2,-1.492,0.243,0.208,0.348,0.59,0.832,0.633,0.54,-0.926,-0.32
'0:00.214',0.598,-1.192,-1.79,0.297,1.194,-1.491,0.241,0.196,0.337,0.581,0.831,0.632,0.538,-0.927,-0.315
'0:00.215',0.597,-1.192,-1.79,0.297,1.194,-1.491,0.235,0.182,0.323,0.571,0.828,0.632,0.536,-0.928,-0.31
'0:00.216',0.597,-1.194,-1.792,0.298,1.194,-1.493,0.233,0.169,0.309,0.561,0.827,0.635,0.536,-0.929,-0.304
'0:00.217',0.596,-1.192,-1.788,0.298,1.192,-1.49,0.23,0.153,0.295,0.549,0.825,0.635,0.532,-0.931,-0.299
'0:00.218',0.593,-1.192,-1.785,0.299,1.189,-1.488,0.227,0.141,0.282,0.539,0.825,0.637,0.53,-0.93,-0.293
'0:00.219',0.591,-1.195,-1.786,0.302,1.188,-1.49,0.222,0.126,0.267,0.527,0.822,0.638,0.529,-0.932,-0.287
'0:00.220',0.583,-1.2,-1.782,0.308,1.183,-1.491,0.217,0.107,0.248,0.511,0.816,0.635,0.522,-0.933,-0.282
'0:00.221',0.578,-1.202,-1.78,0.311,1.179,-1.49,0.213,0.093,0.232,0.498,0.809,0.631,0.517,-0.932,-0.276
'0:00.222',0.576,-1.202,-1.778,0.312,1.177,-1.49,0.209,0.078,0.218,0.487,0.803,0.627,0.512,-0.934,-0.271
'0:00.223',0.573,-1.204,-1.777,0.315,1.175,-1.49,0.206,0.062,0.203,0.475,0.798,0.627,0.509,-0.934,-0.264
'0:00.224',0.568,-1.206,-1.774,0.319,1.171,-1.49,0.203,0.048,0.186,0.462,0.79,0.624,0.505,-0.936,-0.258
'0:00.225',0.561,-1.21,-1.772,0.324,1.167,-1.49,0.202,0.033,0.172,0.45,0.786,0.625,0.501,-0.935,-0.254
'0:00.226',0.557,-1.212,-1.77,0.327,1.163,-1.49,0.199,0.017,0.156,0.436,0.781,0.624,0.497,-0.935,-0.246
'0:00.227',0.55,-1.216,-1.766,0.332,1.159,-1.49,0.195,0.002,0.141,0.423,0.774,0.618,0.491,-0.939,-0.241
'0:00.228',0.545,-1.218,-1.764,0.337,1.155,-1.49,0.191,-0.013,0.126,0.41,0.77,0.619,0.488,-0.94,-0.235
'0:00.229',0.539,-1.22,-1.76,0.34,1.15,-1.49,0.188,-0.028,0.111,0.397,0.766,0.618,0.483,-0.941,-0.229
'0:00.230',0.535,-1.222,-1.757,0.343,1.146,-1.489,0.185,-0.041,0.098,0.387,0.762,0.616,0.479,-0.941,-0.224
'0:00.231',0.53,-1.226,-1.756,0.347,1.143,-1.49,0.179,-0.057,0.082,0.373,0.754,0.613,0.474,-0.947,-0.216
'0:00.232',0.522,-1.23,-1.753,0.353,1.137,-1.491,0.175,-0.072,0.066,0.357,0.747,0.609,0.468,-0.949,-0.211
'0:00.233',0.52,-1.23,-1.751,0.355,1.135,-1.49,0.172,-0.087,0.051,0.344,0.74,0.604,0.463,-0.947,-0.206
'0:00.234',0.517,-1.232,-1.75,0.357,1.133,-1.49,0.168,-0.1,0.037,0.333,0.732,0.6,0.456,-0.949,-0.2
'0:00.235',0.511,-1.236,-1.747,0.362,1.129,-1.491,0.164,-0.113,0.025,0.321,0.728,0.599,0.453,-0.95,-0.195
'0:00.236',0.508,-1.24,-1.748,0.366,1.128,-1.494,0.162,-0.125,0.011,0.31,0.725,0.6,0.45,-0.952,-0.19
'0:00.237',0.499,-1.246,-1.745,0.373,1.122,-1.495,0.158,-0.141,-0.004,0.297,0.717,0.597,0.446,-0.956,-0.182
'0:00.238',0.492,-1.25,-1.743,0.379,1.118,-1.496,0.154,-0.154,-0.017,0.284,0.711,0.593,0.441,-0.958,-0.175
'0:00.239',0.49,-1.253,-1.744,0.381,1.117,-1.498,0.151,-0.164,-0.028,0.274,0.707,0.589,0.436,-0.959,-0.172
'0:00.240',0.487,-1.256,-1.744,0.385,1.115,-1.5,0.147,-0.177,-0.041,0.264,0.702,0.587,0.432,-0.964,-0.166
'0:00.241',0.485,-1.259,-1.744,0.387,1.115,-1.502,0.145,-0.189,-0.053,0.254,0.699,0.587,0.429,-0.964,-0.162
'0:00.242',0.484,-1.259,-1.743,0.387,1.113,-1.5,0.143,-0.199,-0.062,0.244,0.695,0.585,0.425,-0.964,-0.158
'0:00.243',0.482,-1.261,-1.744,0.389,1.113,-1.502,0.14,-0.209,-0.073,0.234,0.691,0.583,0.421,-0.967,-0.153
'0:00.244',0.47,-1.266,-1.736,0.398,1.103,-1.5,0.138,-0.219,-0.085,0.225,0.685,0.585,0.42,-0.968,-0.147
'0:00.245',0.465,-1.271,-1.735,0.403,1.1,-1.502,0.134,-0.231,-0.096,0.216,0.679,0.583,0.417,-0.97,-0.142
'0:00.246',0.466,-1.274,-1.739,0.404,1.103,-1.506,0.132,-0.24,-0.106,0.207,0.674,0.578,0.411,-0.973,-0.139
'0:00.247',0.461,-1.274,-1.736,0.406,1.098,-1.504,0.132,-0.247,-0.114,0.199,0.668,0.577,0.408,-0.973,-0.135
'0:00.248',0.458,-1.276,-1.734,0.408,1.096,-1.505,0.132,-0.255,-0.121,0.191,0.665,0.575,0.405,-0.975,-0.132
'0:00.249',0.455,-1.279,-1.734,0.412,1.095,-1.506,0.131,-0.263,-0.131,0.181,0.66,0.574,0.401,-0.98,-0.127
'0:00.250',0.451,-1.284,-1.735,0.416,1.093,-1.51,0.129,-0.272,-0.139,0.172,0.653,0.572,0.398,-0.983,-0.123
'0:00.251',0.449,-1.284,-1.733,0.417,1.091,-1.508,0.13,-0.278,-0.146,0.166,0.65,0.571,0.395,-0.981,-0.12
'0:00.252',0.452,-1.282,-1.734,0.414,1.093,-1.507,0.129,-0.282,-0.15,0.16,0.647,0.568,0.392,-0.981,-0.117
'0:00.253',0.452,-1.284,-1.736,0.416,1.093,-1.51,0.127,-0.291,-0.158,0.153,0.641,0.568,0.389,-0.982,-0.115
'0:00.254',0.452,-1.285,-1.736,0.416,1.094,-1.51,0.123,-0.298,-0.167,0.145,0.638,0.568,0.39,-0.98,-0.109
'0:00.255',0.449,-1.29,-1.738,0.42,1.093,-1.514,0.122,-0.303,-0.172,0.14,0.633,0.566,0.388,-0.985,-0.106
'0:00.256',0.443,-1.296,-1.738,0.426,1.091,-1.516,0.122,-0.309,-0.178,0.135,0.629,0.564,0.384,-0.987,-0.105
'0:00.257',0.443,-1.296,-1.738,0.426,1.091,-1.517,0.121,-0.315,-0.183,0.131,0.627,0.562,0.383,-0.987,-0.104
'0:00.258',0.443,-1.295,-1.738,0.426,1.091,-1.516,0.122,-0.317,-0.187,0.125,0.625,0.562,0.383,-0.99,-0.102
'0:00.259',0.44,-1.295,-1.736,0.427,1.088,-1.515,0.121,-0.323,-0.193,0.119,0.623,0.561,0.38,-0.991,-0.099
'0:00.260',0.439,-1.298,-1.736,0.429,1.087,-1.516,0.12,-0.328,-0.198,0.114,0.62,0.559,0.377,-0.99,-0.097
'0:00.261',0.433,-1.302,-1.735,0.434,1.084,-1.518,0.117,-0.332,-0.203,0.108,0.617,0.558,0.377,-0.995,-0.094
'0:00.262',0.431,-1.305,-1.736,0.436,1.083,-1.52,0.117,-0.336,-0.206,0.104,0.616,0.557,0.376,-0.997,-0.092
'0:00.263',0.433,-1.304,-1.738,0.435,1.085,-1.52,0.117,-0.337,-0.208,0.101,0.616,0.556,0.373,-0.995,-0.091
'0:00.264',0.43,-1.304,-1.734,0.436,1.083,-1.519,0.117,-0.341,-0.21,0.097,0.614,0.556,0.371,-0.994,-0.09
'0:00.265',0.427,-1.308,-1.736,0.44,1.081,-1.522,0.118,-0.344,-0.213,0.093,0.613,0.556,0.37,-0.995,-0.089
'0:00.266',0.422,-1.312,-1.735,0.445,1.079,-1.524,0.116,-0.346,-0.218,0.089,0.61,0.551,0.366,-1,-0.088
'0:00.267',0.42,-1.315,-1.735,0.447,1.077,-1.524,0.114,-0.351,-0.223,0.085,0.607,0.549,0.363,-1,-0.086
'0:00.268',0.419,-1.317,-1.737,0.449,1.078,-1.527,0.113,-0.355,-0.226,0.081,0.604,0.548,0.363,-1.002,-0.084
'0:00.269',0.416,-1.319,-1.735,0.451,1.075,-1.526,0.113,-0.356,-0.227,0.08,0.603,0.547,0.361,-1.002,-0.081
'0:00.270',0.421,-1.317,-1.738,0.448,1.079,-1.526,0.111,-0.358,-0.229,0.079,0.605,0.55,0.363,-1.002,-0.08
'0:00.271',0.42,-1.317,-1.736,0.448,1.078,-1.526,0.108,-0.361,-0.232,0.076,0.605,0.55,0.363,-1.003,-0.079
'0:00.272',0.414,-1.321,-1.735,0.453,1.075,-1.528,0.111,-0.36,-0.232,0.075,0.603,0.548,0.361,-1.002,-0.081
'0:00.273',0.414,-1.323,-1.738,0.454,1.076,-1.53,0.111,-0.361,-0.233,0.074,0.603,0.546,0.361,-1.005,-0.079
'0:00.274',0.413,-1.323,-1.736,0.455,1.075,-1.53,0.11,-0.363,-0.234,0.072,0.603,0.547,0.361,-1.008,-0.078
'0:00.275',0.414,-1.323,-1.737,0.454,1.076,-1.53,0.108,-0.363,-0.235,0.073,0.603,0.547,0.361,-1.009,-0.079
'0:00.276',0.409,-1.326,-1.736,0.459,1.073,-1.53,0.108,-0.364,-0.236,0.071,0.601,0.546,0.359,-1.008,-0.077
'0:00.277',0.406,-1.329,-1.734,0.461,1.071,-1.531,0.111,-0.364,-0.237,0.071,0.6,0.546,0.359,-1.008,-0.077
'0:00.278',0.409,-1.328,-1.738,0.459,1.073,-1.532,0.111,-0.366,-0.238,0.069,0.597,0.545,0.359,-1.007,-0.076
'0:00.279',0.411,-1.328,-1.74,0.458,1.075,-1.534,0.108,-0.367,-0.239,0.068,0.595,0.545,0.358,-1.006,-0.075
'0:00.280',0.41,-1.327,-1.738,0.459,1.074,-1.532,0.11,-0.366,-0.24,0.068,0.594,0.545,0.358,-1.006,-0.075
'0:00.281',0.408,-1.329,-1.738,0.461,1.073,-1.534,0.109,-0.367,-0.24,0.068,0.593,0.544,0.357,-1.007,-0.075
'0:00.282',0.412,-1.328,-1.74,0.458,1.076,-1.534,0.107,-0.368,-0.24,0.067,0.591,0.543,0.356,-1.012,-0.074
'0:00.283',0.417,-1.324,-1.742,0.453,1.079,-1.532,0.108,-0.369,-0.24,0.066,0.591,0.544,0.357,-1.012,-0.073
'0:00.284',0.423,-1.321,-1.744,0.449,1.084,-1.532,0.11,-0.366,-0.238,0.068,0.591,0.545,0.36,-1.01,-0.073
'0:00.285',0.419,-1.325,-1.744,0.453,1.082,-1.535,0.109,-0.367,-0.238,0.066,0.589,0.544,0.358,-1.012,-0.072
'0:00.286',0.419,-1.323,-1.743,0.452,1.081,-1.533,0.11,-0.366,-0.238,0.068,0.589,0.545,0.36,-1.007,-0.071
'0:00.287',0.419,-1.321,-1.74,0.451,1.079,-1.53,0.111,-0.366,-0.238,0.067,0.589,0.546,0.359,-1.008,-0.072
'0:00.288',0.419,-1.321,-1.741,0.451,1.081,-1.531,0.11,-0.368,-0.24,0.064,0.587,0.545,0.358,-1.012,-0.072
'0:00.289',0.425,-1.318,-1.744,0.446,1.085,-1.53,0.109,-0.368,-0.239,0.063,0.586,0.544,0.358,-1.011,-0.071
'0:00.290',0.425,-1.317,-1.743,0.446,1.084,-1.53,0.108,-0.369,-0.24,0.061,0.584,0.543,0.358,-1.01,-0.07
'0:00.291',0.427,-1.316,-1.742,0.445,1.085,-1.529,0.11,-0.365,-0.239,0.062,0.586,0.541,0.357,-1.009,-0.072
'0:00.292',0.426,-1.315,-1.742,0.444,1.084,-1.528,0.11,-0.367,-0.239,0.062,0.586,0.542,0.357,-1.008,-0.072
'0:00.293',0.424,-1.315,-1.74,0.445,1.082,-1.527,0.111,-0.367,-0.238,0.065,0.588,0.542,0.357,-1.006,-0.073
'0:00.294',0.419,-1.317,-1.736,0.448,1.078,-1.526,0.113,-0.364,-0.236,0.067,0.591,0.542,0.356,-1.008,-0.076
'0:00.295',0.413,-1.319,-1.733,0.453,1.073,-1.526,0.112,-0.365,-0.237,0.066,0.591,0.542,0.355,-1.006,-0.076
'0:00.296',0.415,-1.319,-1.735,0.452,1.075,-1.527,0.111,-0.366,-0.237,0.065,0.591,0.541,0.356,-1.006,-0.075
'0:00.297',0.42,-1.319,-1.738,0.449,1.079,-1.528,0.108,-0.367,-0.237,0.065,0.591,0.541,0.358,-1.007,-0.075
'0:00.298',0.416,-1.319,-1.736,0.451,1.076,-1.527,0.108,-0.366,-0.237,0.066,0.592,0.541,0.356,-1.005,-0.076
'0:00.299',0.412,-1.321,-1.733,0.455,1.073,-1.527,0.109,-0.367,-0.237,0.068,0.594,0.541,0.356,-1.008,-0.077
'0:00.300',0.422,-1.315,-1.738,0.446,1.08,-1.526,0.111,-0.363,-0.234,0.072,0.597,0.544,0.357,-1.011,-0.076
'0:00.301',0.432,-1.308,-1.74,0.438,1.086,-1.524,0.111,-0.362,-0.232,0.072,0.599,0.547,0.359,-1.009,-0.075
'0:00.302',0.426,-1.312,-1.738,0.443,1.082,-1.525,0.11,-0.362,-0.233,0.071,0.598,0.545,0.358,-1.007,-0.076
'0:00.303',0.422,-1.315,-1.736,0.446,1.079,-1.526,0.112,-0.362,-0.233,0.072,0.599,0.545,0.357,-1.01,-0.077
'0:00.304',0.425,-1.313,-1.738,0.444,1.081,-1.525,0.111,-0.361,-0.23,0.074,0.602,0.549,0.359,-1.012,-0.077
'0:00.305',0.427,-1.312,-1.738,0.442,1.083,-1.525,0.111,-0.359,-0.23,0.075,0.603,0.549,0.359,-1.011,-0.077
'0:00.306',0.426,-1.313,-1.74,0.444,1.083,-1.526,0.113,-0.36,-0.23,0.075,0.603,0.547,0.358,-1.011,-0.077
'0:00.307',0.424,-1.317,-1.742,0.446,1.083,-1.529,0.113,-0.358,-0.23,0.075,0.602,0.546,0.357,-1.013,-0.078
'0:00.308',0.425,-1.319,-1.744,0.447,1.085,-1.531,0.112,-0.357,-0.229,0.076,0.602,0.547,0.359,-1.013,-0.078
'0:00.309',0.423,-1.319,-1.742,0.448,1.083,-1.53,0.111,-0.357,-0.229,0.076,0.602,0.546,0.359,-1.012,-0.078
'0:00.310',0.421,-1.319,-1.741,0.449,1.081,-1.53,0.112,-0.357,-0.23,0.076,0.601,0.547,0.36,-1.012,-0.079
'0:00.311',0.424,-1.318,-1.742,0.447,1.084,-1.53,0.111,-0.36,-0.23,0.075,0.602,0.547,0.361,-1.013,-0.08
'0:00.312',0.426,-1.315,-1.741,0.444,1.084,-1.528,0.11,-0.359,-0.229,0.075,0.602,0.547,0.362,-1.014,-0.078
'0:00.313',0.428,-1.314,-1.742,0.443,1.085,-1.528,0.113,-0.357,-0.228,0.076,0.6,0.547,0.362,-1.014,-0.078
'0:00.314',0.43,-1.313,-1.744,0.441,1.087,-1.528,0.112,-0.357,-0.229,0.076,0.6,0.547,0.362,-1.011,-0.079
'0:00.315',0.432,-1.31,-1.742,0.439,1.087,-1.526,0.113,-0.357,-0.228,0.079,0.602,0.548,0.364,-1.008,-0.079
'0:00.316',0.432,-1.309,-1.741,0.438,1.087,-1.525,0.114,-0.355,-0.226,0.081,0.601,0.547,0.365,-1.01,-0.08
'0:00.317',0.429,-1.313,-1.742,0.442,1.085,-1.528,0.113,-0.357,-0.227,0.081,0.6,0.547,0.365,-1.012,-0.077
'0:00.318',0.428,-1.312,-1.74,0.442,1.083,-1.526,0.111,-0.36,-0.23,0.08,0.597,0.544,0.364,-1.012,-0.076
'0:00.319',0.426,-1.31,-1.736,0.442,1.081,-1.522,0.111,-0.356,-0.228,0.08,0.595,0.542,0.362,-1.01,-0.077
'0:00.320',0.427,-1.31,-1.737,0.442,1.082,-1.523,0.112,-0.357,-0.229,0.079,0.594,0.541,0.362,-1.011,-0.078
'0:00.321',0.425,-1.312,-1.736,0.443,1.081,-1.524,0.11,-0.36,-0.231,0.076,0.592,0.539,0.361,-1.012,-0.077
'0:00.322',0.426,-1.31,-1.736,0.441,1.081,-1.522,0.113,-0.355,-0.226,0.08,0.593,0.54,0.361,-1.006,-0.08
'0:00.323',0.425,-1.31,-1.735,0.442,1.081,-1.522,0.114,-0.354,-0.226,0.08,0.592,0.539,0.361,-1.004,-0.08
'0:00.324',0.426,-1.311,-1.737,0.443,1.081,-1.524,0.112,-0.356,-0.227,0.079,0.591,0.538,0.359,-1.006,-0.079
'0:00.325',0.426,-1.312,-1.738,0.442,1.082,-1.524,0.111,-0.355,-0.226,0.079,0.593,0.539,0.359,-1.008,-0.079
'0:00.326',0.425,-1.312,-1.738,0.443,1.081,-1.524,0.11,-0.357,-0.228,0.076,0.593,0.541,0.361,-1.01,-0.078
'0:00.327',0.426,-1.312,-1.738,0.443,1.083,-1.525,0.114,-0.355,-0.226,0.078,0.596,0.541,0.362,-1.008,-0.08
'0:00.328',0.425,-1.311,-1.736,0.443,1.081,-1.523,0.112,-0.357,-0.227,0.076,0.596,0.545,0.363,-1.006,-0.078
'0:00.329',0.428,-1.31,-1.738,0.441,1.083,-1.524,0.112,-0.357,-0.226,0.076,0.598,0.544,0.364,-1.008,-0.077
'0:00.330',0.427,-1.312,-1.739,0.442,1.083,-1.525,0.115,-0.353,-0.225,0.078,0.598,0.541,0.362,-1.007,-0.08
'0:00.331',0.422,-1.314,-1.736,0.446,1.079,-1.525,0.113,-0.355,-0.228,0.076,0.597,0.542,0.359,-1.008,-0.08
'0:00.332',0.421,-1.315,-1.736,0.446,1.079,-1.525,0.113,-0.356,-0.226,0.076,0.597,0.541,0.359,-1.008,-0.08
'0:00.333',0.424,-1.313,-1.738,0.444,1.081,-1.525,0.113,-0.356,-0.227,0.077,0.598,0.543,0.361,-1.006,-0.08
'0:00.334',0.421,-1.314,-1.736,0.446,1.079,-1.524,0.112,-0.357,-0.228,0.076,0.597,0.542,0.36,-1.006,-0.079
'0:00.335',0.417,-1.314,-1.731,0.449,1.074,-1.522,0.113,-0.358,-0.229,0.075,0.596,0.54,0.358,-1.003,-0.08
'0:00.336',0.418,-1.312,-1.731,0.447,1.075,-1.522,0.113,-0.357,-0.229,0.076,0.596,0.54,0.358,-1.002,-0.079
'0:00.337',0.422,-1.311,-1.734,0.444,1.078,-1.522,0.113,-0.357,-0.228,0.076,0.596,0.541,0.36,-1.004,-0.079
'0:00.338',0.428,-1.308,-1.736,0.44,1.083,-1.522,0.111,-0.357,-0.228,0.077,0.596,0.543,0.362,-1.002,-0.078
'0:00.339',0.43,-1.308,-1.738,0.439,1.084,-1.523,0.111,-0.358,-0.228,0.077,0.598,0.544,0.361,-1.004,-0.078
'0:00.340',0.428,-1.308,-1.736,0.44,1.081,-1.521,0.114,-0.357,-0.227,0.079,0.597,0.544,0.36,-1.002,-0.08
'0:00.341',0.424,-1.307,-1.732,0.441,1.078,-1.519,0.115,-0.354,-0.226,0.08,0.596,0.543,0.359,-1,-0.08
'0:00.342',0.421,-1.309,-1.73,0.444,1.075,-1.519,0.113,-0.358,-0.228,0.078,0.592,0.54,0.356,-1.002,-0.08
'0:00.343',0.419,-1.312,-1.731,0.446,1.075,-1.521,0.113,-0.36,-0.23,0.076,0.591,0.54,0.357,-1.006,-0.08
'0:00.344',0.421,-1.313,-1.734,0.446,1.078,-1.524,0.114,-0.357,-0.227,0.078,0.593,0.542,0.358,-1.004,-0.081
'0:00.345',0.421,-1.315,-1.736,0.447,1.079,-1.525,0.113,-0.357,-0.227,0.079,0.594,0.543,0.358,-1.002,-0.08
'0:00.346',0.418,-1.315,-1.734,0.449,1.076,-1.524,0.114,-0.357,-0.228,0.079,0.595,0.542,0.358,-1.002,-0.08
'0:00.347',0.419,-1.315,-1.735,0.448,1.077,-1.525,0.112,-0.357,-0.228,0.077,0.595,0.542,0.357,-1.004,-0.08
'0:00.348',0.417,-1.317,-1.734,0.45,1.075,-1.525,0.113,-0.358,-0.23,0.075,0.595,0.541,0.357,-1.003,-0.079
'0:00.349',0.415,-1.319,-1.734,0.452,1.075,-1.527,0.113,-0.359,-0.23,0.075,0.595,0.542,0.356,-1.003,-0.08
'0:00.350',0.416,-1.32,-1.736,0.452,1.076,-1.528,0.112,-0.36,-0.231,0.074,0.596,0.544,0.356,-1.006,-0.078
'0:00.351',0.409,-1.321,-1.73,0.456,1.07,-1.526,0.114,-0.359,-0.229,0.074,0.596,0.543,0.354,-1.006,-0.079
'0:00.352',0.408,-1.323,-1.731,0.457,1.069,-1.526,0.114,-0.359,-0.229,0.075,0.596,0.542,0.353,-1.005,-0.08
'0:00.353',0.413,-1.321,-1.734,0.454,1.073,-1.527,0.112,-0.358,-0.229,0.079,0.599,0.547,0.359,-1.006,-0.078
'0:00.354',0.416,-1.32,-1.736,0.452,1.076,-1.528,0.111,-0.359,-0.23,0.08,0.599,0.547,0.361,-1.004,-0.077
'0:00.355',0.413,-1.323,-1.736,0.455,1.075,-1.529,0.11,-0.362,-0.233,0.079,0.596,0.546,0.359,-1.006,-0.076
'0:00.356',0.408,-1.325,-1.734,0.458,1.071,-1.529,0.11,-0.362,-0.233,0.076,0.595,0.548,0.36,-1.01,-0.076
'0:00.357',0.408,-1.323,-1.732,0.458,1.07,-1.528,0.109,-0.363,-0.235,0.074,0.592,0.546,0.359,-1.006,-0.076
'0:00.358',0.406,-1.324,-1.73,0.459,1.069,-1.527,0.109,-0.364,-0.235,0.073,0.591,0.543,0.357,-1.005,-0.076
'0:00.359',0.407,-1.323,-1.73,0.458,1.069,-1.527,0.108,-0.365,-0.235,0.07,0.59,0.542,0.355,-1.006,-0.076
'0:00.360',0.407,-1.323,-1.731,0.458,1.069,-1.527,0.106,-0.366,-0.236,0.07,0.59,0.54,0.355,-1.006,-0.075
'0:00.361',0.407,-1.325,-1.732,0.459,1.069,-1.528,0.107,-0.368,-0.237,0.07,0.591,0.54,0.355,-1.006,-0.075
'0:00.362',0.406,-1.326,-1.732,0.46,1.069,-1.529,0.107,-0.368,-0.239,0.068,0.589,0.54,0.354,-1.004,-0.074
'0:00.363',0.408,-1.325,-1.732,0.458,1.071,-1.528,0.107,-0.367,-0.238,0.07,0.59,0.539,0.354,-1.006,-0.073
'0:00.364',0.409,-1.321,-1.731,0.456,1.071,-1.526,0.107,-0.366,-0.238,0.069,0.592,0.539,0.353,-1.004,-0.074
'0:00.365',0.409,-1.32,-1.73,0.455,1.069,-1.524,0.107,-0.367,-0.238,0.07,0.593,0.541,0.355,-1.003,-0.072
'0:00.366',0.409,-1.318,-1.728,0.454,1.069,-1.522,0.108,-0.367,-0.237,0.07,0.594,0.544,0.357,-1.002,-0.072
'0:00.367',0.408,-1.319,-1.726,0.455,1.067,-1.522,0.11,-0.369,-0.239,0.07,0.592,0.543,0.355,-1.002,-0.073
'0:00.368',0.411,-1.317,-1.728,0.453,1.069,-1.522,0.11,-0.369,-0.239,0.07,0.59,0.542,0.355,-1.006,-0.072
'0:00.369',0.413,-1.319,-1.732,0.452,1.073,-1.525,0.108,-0.369,-0.24,0.068,0.589,0.54,0.354,-1.008,-0.071
'0:00.370',0.413,-1.321,-1.734,0.454,1.074,-1.528,0.107,-0.371,-0.243,0.065,0.586,0.536,0.351,-1.007,-0.07
'0:00.371',0.413,-1.321,-1.734,0.454,1.074,-1.528,0.107,-0.373,-0.243,0.063,0.583,0.533,0.349,-1.007,-0.07
'0:00.372',0.414,-1.321,-1.735,0.453,1.075,-1.528,0.106,-0.373,-0.245,0.063,0.583,0.534,0.35,-1.008,-0.07
'0:00.373',0.416,-1.319,-1.736,0.452,1.076,-1.527,0.106,-0.374,-0.245,0.06,0.582,0.536,0.35,-1.01,-0.07
'0:00.374',0.413,-1.319,-1.732,0.453,1.072,-1.524,0.106,-0.374,-0.244,0.06,0.581,0.536,0.349,-1.01,-0.07
'0:00.375',0.406,-1.319,-1.726,0.457,1.066,-1.522,0.107,-0.376,-0.246,0.059,0.579,0.532,0.345,-1.006,-0.069
'0:00.376',0.406,-1.318,-1.724,0.456,1.065,-1.52,0.106,-0.377,-0.248,0.057,0.579,0.535,0.348,-1.005,-0.068
'0:00.377',0.409,-1.316,-1.726,0.453,1.067,-1.52,0.104,-0.376,-0.247,0.059,0.582,0.54,0.352,-1.006,-0.068
'0:00.378',0.409,-1.319,-1.728,0.455,1.068,-1.523,0.104,-0.379,-0.249,0.057,0.58,0.538,0.35,-1.006,-0.069
'0:00.379',0.406,-1.321,-1.726,0.457,1.066,-1.523,0.105,-0.381,-0.252,0.056,0.579,0.537,0.348,-1.005,-0.069
'0:00.380',0.407,-1.319,-1.726,0.456,1.067,-1.523,0.105,-0.38,-0.251,0.054,0.581,0.54,0.349,-1.008,-0.067
'0:00.381',0.409,-1.317,-1.727,0.454,1.069,-1.522,0.104,-0.381,-0.252,0.055,0.582,0.542,0.351,-1.006,-0.066
'0:00.382',0.408,-1.319,-1.728,0.456,1.068,-1.523,0.105,-0.379,-0.25,0.056,0.584,0.542,0.351,-1.004,-0.067
'0:00.383',0.406,-1.323,-1.728,0.459,1.067,-1.526,0.103,-0.384,-0.254,0.054,0.584,0.54,0.35,-1.008,-0.066
'0:00.384',0.402,-1.323,-1.725,0.46,1.063,-1.524,0.103,-0.386,-0.257,0.052,0.584,0.54,0.348,-1.012,-0.066
'0:00.385',0.401,-1.323,-1.724,0.461,1.062,-1.523,0.105,-0.385,-0.255,0.051,0.584,0.54,0.348,-1.012,-0.066
'0:00.386',0.406,-1.321,-1.726,0.458,1.065,-1.523,0.103,-0.388,-0.258,0.049,0.584,0.54,0.348,-1.012,-0.064
'0:00.387',0.407,-1.321,-1.728,0.457,1.067,-1.524,0.103,-0.387,-0.258,0.047,0.584,0.541,0.351,-1.01,-0.064
'0:00.388',0.404,-1.321,-1.726,0.459,1.065,-1.523,0.106,-0.387,-0.258,0.048,0.585,0.542,0.35,-1.005,-0.067
'0:00.389',0.403,-1.321,-1.724,0.459,1.063,-1.522,0.105,-0.388,-0.259,0.046,0.586,0.542,0.349,-1.006,-0.067
'0:00.390',0.4,-1.323,-1.722,0.462,1.061,-1.522,0.105,-0.388,-0.259,0.048,0.585,0.542,0.35,-1.01,-0.065
'0:00.391',0.398,-1.325,-1.722,0.463,1.06,-1.523,0.104,-0.392,-0.262,0.046,0.582,0.541,0.348,-1.01,-0.064
'0:00.392',0.403,-1.324,-1.727,0.461,1.065,-1.525,0.102,-0.392,-0.263,0.044,0.582,0.54,0.349,-1.01,-0.062
'0:00.393',0.402,-1.325,-1.727,0.462,1.064,-1.526,0.102,-0.392,-0.263,0.043,0.582,0.539,0.348,-1.01,-0.062
'0:00.394',0.398,-1.329,-1.726,0.466,1.062,-1.528,0.102,-0.394,-0.266,0.04,0.578,0.535,0.344,-1.012,-0.061
'0:00.395',0.397,-1.331,-1.727,0.467,1.062,-1.528,0.102,-0.395,-0.267,0.039,0.577,0.535,0.343,-1.014,-0.06
'0:00.396',0.396,-1.331,-1.726,0.468,1.06,-1.528,0.102,-0.395,-0.267,0.04,0.578,0.534,0.342,-1.014,-0.06
'0:00.397',0.396,-1.331,-1.726,0.467,1.061,-1.528,0.102,-0.396,-0.268,0.039,0.578,0.534,0.342,-1.014,-0.06
'0:00.398',0.398,-1.329,-1.727,0.466,1.062,-1.528,0.1,-0.398,-0.27,0.036,0.577,0.535,0.343,-1.014,-0.059
'0:00.399',0.4,-1.328,-1.728,0.465,1.063,-1.528,0.099,-0.399,-0.27,0.035,0.575,0.534,0.343,-1.012,-0.059
'0:00.400',0.402,-1.326,-1.728,0.462,1.065,-1.526,0.101,-0.398,-0.269,0.037,0.576,0.536,0.344,-1.012,-0.059
'0:00.401',0.405,-1.324,-1.728,0.46,1.067,-1.526,0.101,-0.399,-0.271,0.035,0.575,0.536,0.344,-1.014,-0.057
'0:00.402',0.405,-1.325,-1.73,0.46,1.067,-1.527,0.1,-0.4,-0.272,0.035,0.575,0.535,0.344,-1.014,-0.057
'0:00.403',0.404,-1.325,-1.729,0.46,1.067,-1.527,0.097,-0.403,-0.274,0.033,0.574,0.534,0.342,-1.014,-0.057
'0:00.404',0.403,-1.327,-1.73,0.462,1.067,-1.528,0.095,-0.405,-0.277,0.031,0.571,0.533,0.342,-1.016,-0.056
'0:00.405',0.4,-1.327,-1.728,0.464,1.064,-1.528,0.095,-0.404,-0.276,0.032,0.572,0.535,0.343,-1.016,-0.056
'0:00.406',0.401,-1.327,-1.728,0.463,1.065,-1.527,0.097,-0.403,-0.274,0.033,0.572,0.535,0.343,-1.013,-0.054
'0:00.407',0.403,-1.329,-1.732,0.463,1.067,-1.53,0.095,-0.405,-0.276,0.032,0.57,0.534,0.344,-1.012,-0.052
'0:00.408',0.404,-1.327,-1.731,0.461,1.067,-1.528,0.094,-0.406,-0.278,0.03,0.568,0.534,0.344,-1.012,-0.051
'0:00.409',0.403,-1.327,-1.728,0.462,1.065,-1.527,0.097,-0.406,-0.279,0.03,0.569,0.534,0.343,-1.013,-0.053
'0:00.410',0.398,-1.327,-1.726,0.465,1.062,-1.526,0.095,-0.407,-0.281,0.029,0.57,0.534,0.343,-1.014,-0.052
'0:00.411',0.398,-1.33,-1.727,0.466,1.062,-1.528,0.093,-0.409,-0.281,0.028,0.57,0.533,0.343,-1.014,-0.053
'0:00.412',0.396,-1.33,-1.726,0.467,1.061,-1.528,0.093,-0.41,-0.282,0.026,0.569,0.529,0.34,-1.012,-0.053
'0:00.413',0.395,-1.331,-1.724,0.468,1.06,-1.527,0.095,-0.409,-0.281,0.029,0.568,0.528,0.339,-1.01,-0.053
'0:00.414',0.395,-1.333,-1.728,0.468,1.062,-1.53,0.094,-0.412,-0.283,0.028,0.568,0.529,0.341,-1.014,-0.053
'0:00.415',0.393,-1.335,-1.728,0.471,1.06,-1.532,0.092,-0.413,-0.284,0.026,0.567,0.527,0.34,-1.016,-0.053
'0:00.416',0.394,-1.335,-1.729,0.47,1.062,-1.532,0.094,-0.412,-0.284,0.028,0.568,0.527,0.341,-1.016,-0.052
'0:00.417',0.392,-1.335,-1.727,0.471,1.06,-1.531,0.093,-0.413,-0.285,0.025,0.568,0.528,0.341,-1.016,-0.052
'0:00.418',0.388,-1.339,-1.726,0.475,1.056,-1.532,0.091,-0.415,-0.286,0.025,0.568,0.528,0.339,-1.016,-0.052
'0:00.419',0.393,-1.333,-1.726,0.47,1.06,-1.53,0.093,-0.413,-0.285,0.027,0.57,0.529,0.341,-1.015,-0.052
'0:00.420',0.4,-1.327,-1.727,0.463,1.063,-1.527,0.093,-0.413,-0.284,0.028,0.571,0.528,0.342,-1.012,-0.053
'0:00.421',0.405,-1.327,-1.732,0.462,1.068,-1.53,0.092,-0.417,-0.287,0.026,0.569,0.529,0.341,-1.014,-0.052
'0:00.422',0.402,-1.331,-1.732,0.464,1.067,-1.531,0.095,-0.414,-0.285,0.03,0.571,0.53,0.342,-1.015,-0.053
'0:00.423',0.398,-1.335,-1.733,0.469,1.065,-1.534,0.092,-0.415,-0.286,0.029,0.571,0.529,0.341,-1.02,-0.053
'0:00.424',0.395,-1.339,-1.734,0.472,1.064,-1.536,0.092,-0.417,-0.288,0.028,0.571,0.529,0.339,-1.019,-0.052
'0:00.425',0.394,-1.337,-1.732,0.471,1.062,-1.534,0.093,-0.415,-0.287,0.028,0.572,0.53,0.339,-1.017,-0.052
'0:00.426',0.396,-1.335,-1.731,0.469,1.063,-1.533,0.091,-0.416,-0.287,0.027,0.572,0.534,0.342,-1.016,-0.052
'0:00.427',0.398,-1.335,-1.732,0.468,1.065,-1.532,0.09,-0.419,-0.289,0.026,0.57,0.533,0.343,-1.016,-0.051
'0:00.428',0.397,-1.333,-1.73,0.469,1.063,-1.532,0.091,-0.415,-0.287,0.026,0.57,0.533,0.343,-1.016,-0.052
'0:00.429',0.396,-1.333,-1.728,0.469,1.062,-1.53,0.092,-0.414,-0.286,0.025,0.571,0.535,0.343,-1.014,-0.052
'0:00.430',0.394,-1.334,-1.728,0.469,1.061,-1.53,0.091,-0.417,-0.288,0.022,0.567,0.532,0.34,-1.014,-0.051
'0:00.431',0.393,-1.335,-1.727,0.471,1.06,-1.53,0.09,-0.419,-0.291,0.021,0.565,0.53,0.339,-1.014,-0.051
'0:00.432',0.395,-1.333,-1.728,0.469,1.061,-1.53,0.091,-0.418,-0.289,0.022,0.566,0.531,0.34,-1.016,-0.051
'0:00.433',0.393,-1.335,-1.728,0.47,1.06,-1.531,0.092,-0.418,-0.29,0.021,0.564,0.531,0.339,-1.018,-0.051
'0:00.434',0.392,-1.337,-1.728,0.472,1.06,-1.532,0.092,-0.419,-0.291,0.018,0.561,0.529,0.337,-1.02,-0.051
'0:00.435',0.395,-1.333,-1.728,0.469,1.062,-1.53,0.091,-0.42,-0.292,0.015,0.558,0.527,0.336,-1.018,-0.049
'0:00.436',0.391,-1.334,-1.725,0.471,1.058,-1.529,0.09,-0.422,-0.294,0.014,0.556,0.524,0.334,-1.018,-0.049
'0:00.437',0.389,-1.335,-1.724,0.473,1.056,-1.529,0.09,-0.422,-0.293,0.015,0.556,0.525,0.335,-1.02,-0.05
'0:00.438',0.39,-1.331,-1.722,0.47,1.056,-1.526,0.091,-0.42,-0.293,0.016,0.556,0.524,0.336,-1.016,-0.051
'0:00.439',0.387,-1.334,-1.721,0.473,1.054,-1.527,0.093,-0.42,-0.294,0.015,0.555,0.523,0.335,-1.014,-0.05
'0:00.440',0.387,-1.333,-1.72,0.472,1.054,-1.526,0.091,-0.422,-0.294,0.015,0.554,0.523,0.334,-1.014,-0.049
'0:00.441',0.387,-1.331,-1.718,0.472,1.052,-1.524,0.091,-0.422,-0.295,0.014,0.553,0.523,0.334,-1.013,-0.049
'0:00.442',0.387,-1.331,-1.718,0.471,1.052,-1.524,0.091,-0.422,-0.294,0.015,0.555,0.523,0.335,-1.013,-0.048
'0:00.443',0.389,-1.329,-1.718,0.47,1.053,-1.523,0.089,-0.424,-0.296,0.014,0.555,0.524,0.336,-1.012,-0.048
'0:00.444',0.386,-1.331,-1.717,0.472,1.052,-1.524,0.088,-0.426,-0.298,0.013,0.554,0.525,0.336,-1.014,-0.048
'0:00.445',0.39,-1.331,-1.72,0.47,1.056,-1.526,0.086,-0.425,-0.297,0.014,0.554,0.523,0.336,-1.015,-0.046
'0:00.446',0.386,-1.333,-1.718,0.473,1.052,-1.526,0.087,-0.427,-0.298,0.014,0.551,0.519,0.333,-1.015,-0.046
'0:00.447',0.379,-1.335,-1.714,0.478,1.046,-1.524,0.087,-0.426,-0.298,0.014,0.551,0.519,0.331,-1.014,-0.046
'0:00.448',0.383,-1.335,-1.716,0.475,1.05,-1.525,0.086,-0.428,-0.3,0.013,0.551,0.52,0.333,-1.012,-0.046
'0:00.449',0.387,-1.335,-1.721,0.473,1.054,-1.528,0.086,-0.428,-0.299,0.014,0.553,0.522,0.336,-1.012,-0.046
'0:00.450',0.385,-1.334,-1.719,0.474,1.052,-1.526,0.085,-0.427,-0.299,0.013,0.554,0.523,0.335,-1.015,-0.045
'0:00.451',0.378,-1.339,-1.717,0.48,1.048,-1.528,0.086,-0.429,-0.301,0.011,0.553,0.522,0.333,-1.016,-0.045
'0:00.452',0.383,-1.337,-1.72,0.477,1.052,-1.528,0.085,-0.428,-0.3,0.01,0.554,0.524,0.335,-1.012,-0.042
'0:00.453',0.388,-1.335,-1.723,0.473,1.055,-1.529,0.085,-0.429,-0.301,0.009,0.554,0.522,0.336,-1.014,-0.041
'0:00.454',0.383,-1.337,-1.721,0.477,1.052,-1.529,0.086,-0.428,-0.3,0.009,0.555,0.523,0.333,-1.017,-0.043
'0:00.455',0.383,-1.339,-1.72,0.477,1.052,-1.53,0.085,-0.43,-0.301,0.009,0.556,0.525,0.334,-1.018,-0.043
'0:00.456',0.384,-1.337,-1.722,0.476,1.053,-1.53,0.085,-0.429,-0.3,0.011,0.558,0.527,0.335,-1.017,-0.042
'0:00.457',0.383,-1.339,-1.722,0.478,1.052,-1.53,0.084,-0.429,-0.3,0.011,0.557,0.528,0.336,-1.016,-0.042
'0:00.458',0.382,-1.342,-1.724,0.48,1.053,-1.533,0.083,-0.431,-0.303,0.009,0.556,0.527,0.337,-1.018,-0.042
'0:00.459',0.386,-1.341,-1.726,0.477,1.056,-1.533,0.083,-0.43,-0.302,0.011,0.559,0.528,0.339,-1.014,-0.043
'0:00.460',0.391,-1.337,-1.729,0.473,1.06,-1.533,0.083,-0.432,-0.303,0.011,0.558,0.526,0.338,-1.014,-0.043
'0:00.461',0.392,-1.336,-1.728,0.472,1.06,-1.532,0.084,-0.431,-0.303,0.011,0.557,0.524,0.336,-1.013,-0.043
'0:00.462',0.391,-1.336,-1.727,0.472,1.059,-1.531,0.086,-0.428,-0.301,0.012,0.558,0.526,0.336,-1.012,-0.043
'0:00.463',0.387,-1.339,-1.726,0.475,1.056,-1.532,0.086,-0.43,-0.303,0.009,0.557,0.527,0.337,-1.016,-0.043
'0:00.464',0.384,-1.342,-1.726,0.479,1.054,-1.534,0.084,-0.434,-0.306,0.006,0.555,0.526,0.334,-1.02,-0.042
'0:00.465',0.386,-1.341,-1.726,0.477,1.056,-1.534,0.084,-0.436,-0.306,0.007,0.557,0.525,0.333,-1.02,-0.043
'0:00.466',0.388,-1.341,-1.728,0.476,1.058,-1.534,0.084,-0.434,-0.305,0.007,0.558,0.528,0.336,-1.018,-0.043
'0:00.467',0.389,-1.341,-1.73,0.475,1.059,-1.534,0.082,-0.433,-0.307,0.006,0.557,0.528,0.335,-1.012,-0.042
'0:00.468',0.387,-1.337,-1.724,0.475,1.056,-1.53,0.084,-0.433,-0.305,0.007,0.556,0.525,0.333,-1.01,-0.042
'0:00.469',0.383,-1.339,-1.722,0.477,1.052,-1.53,0.086,-0.432,-0.305,0.008,0.556,0.525,0.332,-1.013,-0.042
'0:00.470',0.381,-1.341,-1.722,0.479,1.052,-1.531,0.084,-0.433,-0.305,0.009,0.555,0.525,0.332,-1.016,-0.042
'0:00.471',0.382,-1.343,-1.724,0.48,1.053,-1.534,0.081,-0.435,-0.306,0.009,0.557,0.525,0.332,-1.02,-0.043
'0:00.472',0.381,-1.345,-1.725,0.481,1.053,-1.534,0.079,-0.436,-0.307,0.01,0.556,0.523,0.332,-1.015,-0.043
'0:00.473',0.382,-1.343,-1.724,0.48,1.053,-1.534,0.079,-0.436,-0.308,0.008,0.552,0.522,0.332,-1.014,-0.042
'0:00.474',0.38,-1.347,-1.727,0.483,1.054,-1.537,0.077,-0.438,-0.311,0.006,0.552,0.521,0.331,-1.018,-0.041
'0:00.475',0.381,-1.345,-1.726,0.482,1.053,-1.536,0.08,-0.438,-0.309,0.006,0.554,0.52,0.331,-1.016,-0.041
'0:00.476',0.386,-1.339,-1.724,0.476,1.056,-1.532,0.083,-0.434,-0.308,0.005,0.555,0.522,0.333,-1.014,-0.043
'0:00.477',0.388,-1.339,-1.726,0.475,1.057,-1.532,0.084,-0.434,-0.307,0.006,0.556,0.524,0.332,-1.016,-0.043
'0:00.478',0.396,-1.331,-1.728,0.468,1.062,-1.529,0.085,-0.432,-0.305,0.009,0.561,0.528,0.333,-1.016,-0.042
'0:00.479',0.401,-1.328,-1.729,0.464,1.065,-1.528,0.086,-0.428,-0.301,0.011,0.566,0.53,0.333,-1.018,-0.043
'0:00.480',0.394,-1.337,-1.73,0.471,1.062,-1.533,0.086,-0.431,-0.305,0.008,0.561,0.525,0.331,-1.018,-0.044
'0:00.481',0.388,-1.339,-1.728,0.475,1.058,-1.533,0.084,-0.434,-0.307,0.005,0.562,0.529,0.334,-1.016,-0.043
'0:00.482',0.387,-1.341,-1.726,0.477,1.056,-1.534,0.084,-0.434,-0.306,0.004,0.561,0.531,0.336,-1.017,-0.042
'0:00.483',0.389,-1.341,-1.73,0.476,1.059,-1.536,0.085,-0.434,-0.309,0.001,0.558,0.525,0.332,-1.018,-0.043
'0:00.484',0.387,-1.341,-1.728,0.477,1.058,-1.534,0.086,-0.434,-0.309,-0.001,0.558,0.524,0.331,-1.015,-0.042
'0:00.485',0.382,-1.345,-1.726,0.481,1.054,-1.535,0.086,-0.434,-0.308,0,0.557,0.524,0.329,-1.012,-0.043
'0:00.486',0.38,-1.346,-1.726,0.482,1.053,-1.536,0.086,-0.435,-0.31,-0.001,0.556,0.524,0.329,-1.016,-0.041
'0:00.487',0.39,-1.341,-1.731,0.476,1.06,-1.536,0.083,-0.436,-0.309,0,0.557,0.525,0.334,-1.018,-0.04
'0:00.488',0.394,-1.341,-1.735,0.474,1.064,-1.538,0.081,-0.436,-0.309,0,0.559,0.527,0.336,-1.015,-0.041
'0:00.489',0.39,-1.343,-1.734,0.476,1.062,-1.538,0.081,-0.437,-0.31,-0.002,0.556,0.526,0.334,-1.014,-0.04
'0:00.490',0.392,-1.342,-1.734,0.475,1.063,-1.538,0.082,-0.436,-0.309,-0.002,0.555,0.525,0.331,-1.016,-0.04
'0:00.491',0.388,-1.345,-1.732,0.478,1.06,-1.538,0.082,-0.437,-0.31,-0.001,0.554,0.525,0.33,-1.02,-0.041
'0:00.492',0.386,-1.345,-1.73,0.479,1.058,-1.538,0.084,-0.436,-0.309,0.001,0.553,0.526,0.333,-1.023,-0.04
'0:00.493',0.389,-1.343,-1.732,0.476,1.06,-1.536,0.085,-0.435,-0.309,0.002,0.556,0.529,0.337,-1.022,-0.04
'0:00.494',0.395,-1.339,-1.734,0.472,1.065,-1.536,0.086,-0.433,-0.307,0.004,0.558,0.531,0.339,-1.021,-0.04
'0:00.495',0.396,-1.339,-1.734,0.471,1.065,-1.536,0.086,-0.432,-0.305,0.005,0.559,0.531,0.338,-1.02,-0.04
'0:00.496',0.395,-1.339,-1.734,0.472,1.064,-1.536,0.085,-0.433,-0.308,0.003,0.559,0.531,0.339,-1.021,-0.039
'0:00.497',0.393,-1.338,-1.73,0.472,1.062,-1.534,0.085,-0.433,-0.307,0.003,0.559,0.531,0.339,-1.02,-0.039
'0:00.498',0.39,-1.339,-1.728,0.474,1.059,-1.534,0.085,-0.434,-0.308,0.003,0.557,0.529,0.335,-1.022,-0.039
'0:00.499',0.389,-1.339,-1.728,0.475,1.058,-1.533,0.084,-0.433,-0.307,0.002,0.557,0.528,0.336,-1.024,-0.04
'0:00.500',0.387,-1.341,-1.727,0.476,1.056,-1.534,0.082,-0.435,-0.31,0.002,0.558,0.528,0.337,-1.024,-0.04
'0:00.501',0.389,-1.339,-1.728,0.475,1.059,-1.534,0.082,-0.436,-0.309,0.003,0.558,0.529,0.337,-1.024,-0.04
'0:00.502',0.388,-1.337,-1.724,0.474,1.056,-1.53,0.084,-0.432,-0.304,0.005,0.558,0.527,0.335,-1.018,-0.042
'0:00.503',0.388,-1.335,-1.722,0.473,1.055,-1.529,0.084,-0.432,-0.307,0.006,0.557,0.525,0.334,-1.016,-0.042
'0:00.504',0.388,-1.335,-1.724,0.473,1.056,-1.529,0.082,-0.434,-0.308,0.006,0.556,0.522,0.333,-1.018,-0.041
'0:00.505',0.386,-1.336,-1.722,0.475,1.054,-1.529,0.081,-0.435,-0.306,0.006,0.555,0.519,0.331,-1.015,-0.043
'0:00.506',0.388,-1.338,-1.726,0.474,1.057,-1.532,0.08,-0.438,-0.309,0.003,0.553,0.519,0.33,-1.016,-0.042
'0:00.507',0.383,-1.341,-1.724,0.479,1.054,-1.533,0.082,-0.435,-0.308,0.004,0.553,0.519,0.329,-1.02,-0.042
'0:00.508',0.384,-1.341,-1.724,0.478,1.054,-1.532,0.08,-0.436,-0.31,0.003,0.553,0.519,0.33,-1.02,-0.043
'0:00.509',0.384,-1.341,-1.724,0.478,1.054,-1.532,0.077,-0.439,-0.312,-0.001,0.55,0.517,0.328,-1.018,-0.042
'0:00.510',0.381,-1.342,-1.722,0.48,1.052,-1.532,0.08,-0.436,-0.31,0.001,0.548,0.517,0.327,-1.018,-0.041
'0:00.511',0.38,-1.343,-1.723,0.481,1.051,-1.532,0.08,-0.438,-0.311,0.002,0.548,0.518,0.329,-1.017,-0.041
'0:00.512',0.376,-1.345,-1.722,0.484,1.048,-1.533,0.08,-0.438,-0.311,0.003,0.549,0.519,0.33,-1.018,-0.041
'0:00.513',0.377,-1.344,-1.72,0.483,1.048,-1.532,0.08,-0.438,-0.312,0.001,0.549,0.518,0.329,-1.016,-0.041
'0:00.514',0.377,-1.345,-1.721,0.483,1.049,-1.532,0.076,-0.441,-0.315,-0.002,0.547,0.515,0.328,-1.016,-0.04
'0:00.515',0.378,-1.347,-1.724,0.484,1.051,-1.535,0.074,-0.445,-0.318,-0.003,0.546,0.516,0.329,-1.018,-0.039
'0:00.516',0.378,-1.345,-1.723,0.483,1.05,-1.534,0.074,-0.444,-0.317,-0.002,0.548,0.518,0.331,-1.018,-0.04
'0:00.517',0.374,-1.344,-1.719,0.484,1.047,-1.532,0.077,-0.44,-0.314,0.002,0.552,0.519,0.332,-1.016,-0.041
'0:00.518',0.379,-1.341,-1.72,0.48,1.05,-1.53,0.077,-0.44,-0.312,0.003,0.556,0.521,0.335,-1.017,-0.042
'0:00.519',0.381,-1.339,-1.72,0.478,1.05,-1.528,0.081,-0.435,-0.308,0.006,0.558,0.523,0.335,-1.014,-0.044
'0:00.520',0.381,-1.339,-1.719,0.478,1.05,-1.528,0.084,-0.433,-0.306,0.007,0.56,0.523,0.336,-1.016,-0.046
'0:00.521',0.386,-1.338,-1.724,0.476,1.054,-1.53,0.084,-0.431,-0.304,0.009,0.561,0.526,0.34,-1.02,-0.048
'0:00.522',0.388,-1.335,-1.722,0.473,1.055,-1.528,0.091,-0.425,-0.298,0.015,0.565,0.528,0.34,-1.015,-0.052
'0:00.523',0.391,-1.329,-1.72,0.469,1.055,-1.524,0.095,-0.421,-0.294,0.018,0.567,0.526,0.339,-1.011,-0.056
'0:00.524',0.396,-1.326,-1.722,0.465,1.059,-1.524,0.094,-0.418,-0.292,0.021,0.57,0.527,0.341,-1.01,-0.056
'0:00.525',0.401,-1.319,-1.72,0.459,1.061,-1.52,0.095,-0.414,-0.288,0.025,0.572,0.53,0.345,-1.01,-0.057
'0:00.526',0.402,-1.315,-1.718,0.457,1.06,-1.516,0.095,-0.415,-0.287,0.026,0.574,0.531,0.346,-1.006,-0.058
'0:00.527',0.404,-1.313,-1.716,0.454,1.06,-1.514,0.093,-0.416,-0.287,0.029,0.575,0.531,0.348,-1.003,-0.059
'0:00.528',0.409,-1.31,-1.72,0.451,1.065,-1.515,0.095,-0.41,-0.282,0.032,0.574,0.532,0.352,-1.006,-0.061
'0:00.529',0.414,-1.307,-1.721,0.446,1.067,-1.514,0.097,-0.405,-0.279,0.033,0.575,0.534,0.355,-1.006,-0.062
'0:00.530',0.42,-1.301,-1.722,0.44,1.071,-1.511,0.093,-0.405,-0.278,0.035,0.577,0.537,0.358,-1.006,-0.06
'0:00.531',0.424,-1.3,-1.724,0.438,1.074,-1.512,0.093,-0.403,-0.274,0.04,0.58,0.538,0.362,-1.009,-0.059
'0:00.532',0.427,-1.3,-1.726,0.436,1.077,-1.512,0.099,-0.396,-0.268,0.044,0.583,0.539,0.365,-1.005,-0.062
'0:00.533',0.428,-1.298,-1.726,0.435,1.077,-1.512,0.102,-0.392,-0.266,0.045,0.585,0.541,0.367,-1.002,-0.062
'0:00.534',0.426,-1.298,-1.724,0.435,1.075,-1.51,0.105,-0.391,-0.263,0.048,0.586,0.543,0.368,-1,-0.066
'0:00.535',0.428,-1.293,-1.722,0.432,1.075,-1.507,0.112,-0.385,-0.258,0.052,0.588,0.545,0.37,-0.996,-0.07
'0:00.536',0.428,-1.288,-1.717,0.429,1.073,-1.502,0.117,-0.383,-0.256,0.056,0.59,0.548,0.374,-0.99,-0.07
'0:00.537',0.427,-1.284,-1.712,0.428,1.069,-1.498,0.117,-0.381,-0.254,0.058,0.592,0.551,0.376,-0.984,-0.069
'0:00.538',0.427,-1.28,-1.708,0.426,1.067,-1.494,0.122,-0.378,-0.25,0.06,0.594,0.551,0.374,-0.978,-0.07
'0:00.539',0.426,-1.28,-1.706,0.427,1.066,-1.492,0.123,-0.378,-0.251,0.061,0.594,0.551,0.374,-0.972,-0.072
'0:00.540',0.427,-1.28,-1.707,0.426,1.067,-1.493,0.124,-0.377,-0.248,0.062,0.597,0.554,0.377,-0.975,-0.07
'0:00.541',0.43,-1.274,-1.705,0.422,1.067,-1.49,0.127,-0.374,-0.246,0.064,0.599,0.554,0.378,-0.973,-0.07
'0:00.542',0.432,-1.27,-1.702,0.419,1.067,-1.486,0.128,-0.374,-0.247,0.064,0.596,0.551,0.376,-0.971,-0.071
'0:00.543',0.433,-1.27,-1.702,0.418,1.068,-1.486,0.127,-0.378,-0.251,0.061,0.593,0.548,0.373,-0.969,-0.069
'0:00.544',0.432,-1.267,-1.7,0.417,1.066,-1.483,0.127,-0.376,-0.248,0.062,0.596,0.553,0.376,-0.965,-0.07
'0:00.545',0.437,-1.262,-1.7,0.412,1.069,-1.481,0.128,-0.374,-0.246,0.064,0.598,0.557,0.378,-0.957,-0.069
'0:00.546',0.438,-1.264,-1.702,0.413,1.069,-1.482,0.127,-0.375,-0.248,0.065,0.599,0.558,0.38,-0.954,-0.067
'0:00.547',0.43,-1.266,-1.696,0.418,1.063,-1.481,0.127,-0.377,-0.248,0.066,0.6,0.557,0.378,-0.958,-0.066
'0:00.548',0.431,-1.265,-1.696,0.416,1.064,-1.48,0.124,-0.379,-0.251,0.066,0.601,0.558,0.379,-0.958,-0.063
'0:00.549',0.433,-1.266,-1.699,0.416,1.066,-1.482,0.12,-0.381,-0.253,0.065,0.602,0.559,0.38,-0.961,-0.059
'0:00.550',0.436,-1.262,-1.698,0.413,1.067,-1.48,0.117,-0.38,-0.252,0.067,0.604,0.56,0.383,-0.959,-0.059
'0:00.551',0.443,-1.256,-1.698,0.406,1.071,-1.477,0.117,-0.376,-0.248,0.072,0.607,0.565,0.387,-0.952,-0.062
'0:00.552',0.447,-1.252,-1.698,0.403,1.073,-1.475,0.117,-0.373,-0.244,0.075,0.61,0.569,0.393,-0.949,-0.061
'0:00.553',0.45,-1.25,-1.7,0.4,1.075,-1.475,0.114,-0.371,-0.243,0.077,0.612,0.57,0.398,-0.949,-0.059
'0:00.554',0.451,-1.25,-1.7,0.4,1.075,-1.475,0.112,-0.372,-0.244,0.079,0.611,0.569,0.398,-0.947,-0.056
'0:00.555',0.452,-1.249,-1.7,0.399,1.076,-1.474,0.108,-0.374,-0.244,0.079,0.613,0.571,0.399,-0.945,-0.054
'0:00.556',0.456,-1.246,-1.702,0.395,1.079,-1.474,0.104,-0.373,-0.243,0.082,0.616,0.572,0.401,-0.944,-0.053
'0:00.557',0.457,-1.246,-1.703,0.394,1.08,-1.474,0.098,-0.374,-0.245,0.082,0.617,0.572,0.402,-0.946,-0.049
'0:00.558',0.459,-1.246,-1.705,0.394,1.082,-1.475,0.088,-0.382,-0.251,0.075,0.615,0.575,0.405,-0.949,-0.041
'0:00.559',0.462,-1.244,-1.706,0.391,1.084,-1.475,0.084,-0.387,-0.257,0.074,0.617,0.58,0.406,-0.944,-0.034
'0:00.560',0.465,-1.236,-1.7,0.385,1.082,-1.468,0.077,-0.39,-0.256,0.075,0.622,0.586,0.409,-0.934,-0.032
'0:00.561',0.474,-1.226,-1.7,0.376,1.087,-1.462,0.066,-0.393,-0.259,0.076,0.626,0.591,0.416,-0.932,-0.027
'0:00.562',0.484,-1.218,-1.703,0.366,1.093,-1.46,0.062,-0.39,-0.257,0.079,0.631,0.597,0.424,-0.934,-0.025
'0:00.563',0.49,-1.212,-1.702,0.36,1.096,-1.456,0.054,-0.395,-0.261,0.076,0.633,0.601,0.428,-0.932,-0.019
'0:00.564',0.494,-1.214,-1.708,0.359,1.101,-1.46,0.043,-0.406,-0.272,0.069,0.627,0.599,0.427,-0.938,-0.011
'0:00.565',0.491,-1.222,-1.714,0.365,1.103,-1.468,0.033,-0.417,-0.282,0.059,0.619,0.592,0.422,-0.946,-0.009
'0:00.566',0.49,-1.231,-1.722,0.37,1.106,-1.476,0.026,-0.418,-0.285,0.058,0.616,0.589,0.421,-0.954,-0.011
'0:00.567',0.486,-1.24,-1.727,0.377,1.107,-1.484,0.027,-0.416,-0.284,0.057,0.614,0.587,0.421,-0.965,-0.013
'0:00.568',0.484,-1.245,-1.73,0.38,1.107,-1.487,0.026,-0.421,-0.289,0.054,0.612,0.583,0.418,-0.966,-0.015
'0:00.569',0.48,-1.245,-1.725,0.382,1.103,-1.484,0.025,-0.427,-0.294,0.049,0.608,0.581,0.414,-0.964,-0.014
'0:00.570',0.472,-1.252,-1.724,0.39,1.098,-1.488,0.025,-0.435,-0.303,0.04,0.602,0.577,0.408,-0.969,-0.013
'0:00.571',0.462,-1.262,-1.724,0.4,1.093,-1.493,0.027,-0.439,-0.307,0.035,0.599,0.573,0.404,-0.973,-0.015
'0:00.572',0.452,-1.272,-1.724,0.409,1.087,-1.498,0.03,-0.442,-0.311,0.029,0.596,0.572,0.399,-0.975,-0.015
'0:00.573',0.453,-1.282,-1.734,0.414,1.093,-1.508,0.029,-0.448,-0.318,0.025,0.594,0.571,0.399,-0.986,-0.011
'0:00.574',0.458,-1.288,-1.746,0.415,1.101,-1.516,0.026,-0.457,-0.325,0.019,0.591,0.569,0.399,-0.997,-0.005
'0:00.575',0.461,-1.29,-1.75,0.414,1.105,-1.52,0.026,-0.459,-0.327,0.018,0.593,0.569,0.398,-0.997,-0.004
'0:00.576',0.461,-1.29,-1.752,0.414,1.106,-1.52,0.028,-0.458,-0.328,0.018,0.595,0.57,0.397,-0.997,-0.004
'0:00.577',0.461,-1.294,-1.754,0.416,1.107,-1.524,0.028,-0.462,-0.332,0.013,0.593,0.569,0.395,-0.997,-0.003
'0:00.578',0.459,-1.298,-1.756,0.419,1.107,-1.526,0.033,-0.458,-0.328,0.016,0.595,0.569,0.394,-1.001,-0.007
'0:00.579',0.455,-1.299,-1.754,0.422,1.105,-1.526,0.037,-0.456,-0.325,0.018,0.598,0.57,0.393,-1.002,-0.009
'0:00.580',0.454,-1.298,-1.752,0.421,1.103,-1.524,0.041,-0.455,-0.326,0.019,0.598,0.57,0.392,-1,-0.013
'0:00.581',0.448,-1.298,-1.746,0.425,1.097,-1.522,0.045,-0.455,-0.327,0.018,0.595,0.568,0.386,-0.999,-0.013
'0:00.582',0.441,-1.303,-1.744,0.431,1.092,-1.523,0.049,-0.455,-0.326,0.016,0.593,0.567,0.382,-1,-0.015
'0:00.583',0.442,-1.3,-1.742,0.429,1.091,-1.52,0.051,-0.454,-0.324,0.017,0.594,0.566,0.38,-0.998,-0.018
'0:00.584',0.438,-1.298,-1.736,0.43,1.087,-1.518,0.051,-0.456,-0.328,0.015,0.592,0.565,0.377,-0.997,-0.018
'0:00.585',0.431,-1.3,-1.73,0.434,1.081,-1.515,0.054,-0.453,-0.325,0.018,0.593,0.562,0.373,-0.994,-0.022
'0:00.586',0.428,-1.298,-1.726,0.434,1.077,-1.512,0.057,-0.453,-0.325,0.017,0.59,0.558,0.369,-0.989,-0.023
'0:00.587',0.424,-1.298,-1.722,0.436,1.073,-1.51,0.058,-0.455,-0.326,0.016,0.588,0.556,0.364,-0.989,-0.024
'0:00.588',0.419,-1.3,-1.719,0.44,1.069,-1.509,0.061,-0.454,-0.325,0.015,0.589,0.555,0.361,-0.989,-0.025
'0:00.589',0.415,-1.302,-1.718,0.444,1.067,-1.51,0.06,-0.454,-0.328,0.011,0.584,0.552,0.358,-0.99,-0.025
'0:00.590',0.412,-1.305,-1.717,0.446,1.065,-1.511,0.06,-0.455,-0.328,0.009,0.582,0.551,0.357,-0.988,-0.025
'0:00.591',0.412,-1.307,-1.719,0.447,1.065,-1.513,0.059,-0.458,-0.33,0.007,0.58,0.55,0.356,-0.99,-0.025
'0:00.592',0.407,-1.308,-1.716,0.45,1.062,-1.512,0.059,-0.458,-0.33,0.006,0.579,0.552,0.357,-0.991,-0.026
'0:00.593',0.402,-1.313,-1.716,0.456,1.059,-1.514,0.06,-0.459,-0.331,0.004,0.578,0.551,0.356,-0.995,-0.025
'0:00.594',0.403,-1.321,-1.724,0.459,1.063,-1.522,0.058,-0.465,-0.339,-0.004,0.571,0.546,0.352,-1.006,-0.02
'0:00.595',0.4,-1.327,-1.727,0.464,1.063,-1.527,0.056,-0.469,-0.344,-0.011,0.563,0.54,0.348,-1.011,-0.018
'0:00.596',0.394,-1.337,-1.73,0.471,1.062,-1.534,0.054,-0.471,-0.347,-0.015,0.556,0.534,0.344,-1.018,-0.018
'0:00.597',0.394,-1.339,-1.733,0.472,1.063,-1.536,0.056,-0.473,-0.347,-0.017,0.553,0.531,0.341,-1.02,-0.018
'0:00.598',0.393,-1.339,-1.732,0.473,1.062,-1.536,0.058,-0.473,-0.347,-0.021,0.549,0.525,0.336,-1.021,-0.018
'0:00.599',0.386,-1.343,-1.73,0.478,1.058,-1.536,0.061,-0.471,-0.346,-0.021,0.545,0.52,0.33,-1.024,-0.019
'0:00.600',0.379,-1.347,-1.726,0.483,1.052,-1.536,0.065,-0.468,-0.343,-0.021,0.542,0.517,0.326,-1.022,-0.021
'0:00.601',0.371,-1.351,-1.722,0.49,1.046,-1.536,0.07,-0.467,-0.343,-0.022,0.537,0.513,0.322,-1.024,-0.025
'0:00.602',0.366,-1.353,-1.72,0.493,1.043,-1.536,0.072,-0.465,-0.341,-0.022,0.534,0.51,0.319,-1.025,-0.028
'0:00.603',0.364,-1.356,-1.72,0.496,1.042,-1.538,0.073,-0.464,-0.341,-0.025,0.531,0.506,0.316,-1.028,-0.029
'0:00.604',0.365,-1.357,-1.722,0.496,1.044,-1.54,0.078,-0.462,-0.341,-0.025,0.53,0.506,0.315,-1.031,-0.03
'0:00.605',0.363,-1.358,-1.721,0.497,1.042,-1.54,0.081,-0.46,-0.336,-0.024,0.532,0.508,0.315,-1.034,-0.032
'0:00.606',0.358,-1.359,-1.718,0.5,1.038,-1.538,0.082,-0.461,-0.337,-0.024,0.532,0.506,0.313,-1.036,-0.032
'0:00.607',0.36,-1.36,-1.72,0.499,1.04,-1.54,0.081,-0.463,-0.339,-0.025,0.53,0.504,0.312,-1.035,-0.03
'0:00.608',0.361,-1.361,-1.723,0.499,1.042,-1.542,0.079,-0.464,-0.339,-0.026,0.53,0.505,0.313,-1.038,-0.029
'0:00.609',0.36,-1.365,-1.725,0.502,1.042,-1.544,0.077,-0.466,-0.342,-0.028,0.53,0.507,0.314,-1.038,-0.027
'0:00.610',0.363,-1.365,-1.728,0.5,1.046,-1.546,0.076,-0.468,-0.343,-0.028,0.532,0.508,0.315,-1.04,-0.025
'0:00.611',0.364,-1.363,-1.728,0.499,1.046,-1.546,0.075,-0.468,-0.343,-0.028,0.532,0.508,0.316,-1.041,-0.024
'0:00.612',0.364,-1.363,-1.728,0.499,1.046,-1.545,0.074,-0.468,-0.344,-0.029,0.53,0.509,0.317,-1.04,-0.022
'0:00.613',0.366,-1.365,-1.731,0.499,1.048,-1.548,0.072,-0.47,-0.346,-0.032,0.531,0.51,0.316,-1.043,-0.021
'0:00.614',0.365,-1.365,-1.73,0.499,1.048,-1.547,0.072,-0.472,-0.347,-0.031,0.532,0.508,0.315,-1.043,-0.021
'0:00.615',0.366,-1.365,-1.73,0.499,1.048,-1.547,0.072,-0.471,-0.346,-0.029,0.533,0.508,0.315,-1.042,-0.022
'0:00.616',0.37,-1.365,-1.736,0.497,1.052,-1.55,0.071,-0.47,-0.345,-0.029,0.533,0.509,0.317,-1.042,-0.022
'0:00.617',0.373,-1.367,-1.74,0.496,1.056,-1.553,0.068,-0.473,-0.347,-0.03,0.53,0.508,0.317,-1.04,-0.02
'0:00.618',0.366,-1.371,-1.737,0.501,1.052,-1.554,0.068,-0.474,-0.349,-0.032,0.527,0.505,0.313,-1.046,-0.021
'0:00.619',0.362,-1.369,-1.732,0.503,1.047,-1.55,0.071,-0.471,-0.347,-0.03,0.529,0.506,0.314,-1.044,-0.021
'0:00.620',0.366,-1.367,-1.733,0.5,1.05,-1.55,0.071,-0.471,-0.345,-0.029,0.53,0.505,0.312,-1.039,-0.021
'0:00.621',0.364,-1.369,-1.733,0.502,1.049,-1.551,0.07,-0.473,-0.348,-0.031,0.525,0.5,0.308,-1.04,-0.022
'0:00.622',0.362,-1.369,-1.732,0.503,1.048,-1.55,0.07,-0.473,-0.349,-0.033,0.524,0.501,0.309,-1.043,-0.021
'0:00.623',0.363,-1.369,-1.732,0.502,1.047,-1.55,0.073,-0.472,-0.347,-0.033,0.526,0.502,0.309,-1.044,-0.024
'0:00.624',0.368,-1.367,-1.734,0.499,1.051,-1.55,0.07,-0.474,-0.348,-0.032,0.527,0.502,0.311,-1.043,-0.024
'0:00.625',0.366,-1.367,-1.734,0.5,1.05,-1.55,0.07,-0.473,-0.348,-0.032,0.526,0.503,0.312,-1.044,-0.022
'0:00.626',0.367,-1.365,-1.733,0.498,1.05,-1.549,0.072,-0.472,-0.347,-0.032,0.527,0.503,0.311,-1.043,-0.024
'0:00.627',0.367,-1.366,-1.733,0.499,1.05,-1.549,0.071,-0.473,-0.348,-0.033,0.527,0.503,0.309,-1.044,-0.025
'0:00.628',0.365,-1.367,-1.732,0.501,1.049,-1.55,0.071,-0.473,-0.349,-0.034,0.527,0.501,0.308,-1.047,-0.024
'0:00.629',0.367,-1.365,-1.732,0.498,1.05,-1.548,0.07,-0.472,-0.348,-0.033,0.528,0.502,0.31,-1.047,-0.025
'0:00.630',0.364,-1.363,-1.728,0.499,1.046,-1.545,0.072,-0.471,-0.348,-0.033,0.528,0.502,0.311,-1.043,-0.026
'0:00.631',0.362,-1.363,-1.726,0.5,1.044,-1.544,0.075,-0.471,-0.347,-0.03,0.531,0.505,0.311,-1.038,-0.026
'0:00.632',0.366,-1.361,-1.726,0.497,1.046,-1.544,0.074,-0.471,-0.346,-0.028,0.534,0.511,0.315,-1.038,-0.025
'0:00.633',0.369,-1.361,-1.73,0.495,1.05,-1.544,0.072,-0.471,-0.349,-0.033,0.532,0.509,0.316,-1.04,-0.025
'0:00.634',0.366,-1.361,-1.727,0.497,1.047,-1.544,0.07,-0.472,-0.349,-0.035,0.532,0.507,0.314,-1.038,-0.025
'0:00.635',0.362,-1.362,-1.724,0.499,1.043,-1.543,0.07,-0.473,-0.349,-0.035,0.531,0.507,0.314,-1.038,-0.025
'0:00.636',0.36,-1.364,-1.724,0.501,1.042,-1.544,0.072,-0.473,-0.349,-0.034,0.533,0.507,0.313,-1.039,-0.026
'0:00.637',0.362,-1.363,-1.726,0.5,1.044,-1.544,0.073,-0.472,-0.349,-0.033,0.533,0.509,0.314,-1.041,-0.025
'0:00.638',0.365,-1.361,-1.726,0.497,1.046,-1.542,0.073,-0.47,-0.347,-0.031,0.534,0.508,0.313,-1.041,-0.025
'0:00.639',0.366,-1.359,-1.726,0.496,1.046,-1.542,0.072,-0.471,-0.348,-0.031,0.534,0.507,0.312,-1.039,-0.027
'0:00.640',0.367,-1.361,-1.728,0.497,1.048,-1.544,0.07,-0.473,-0.348,-0.032,0.533,0.507,0.314,-1.042,-0.027
'0:00.641',0.366,-1.362,-1.729,0.497,1.048,-1.545,0.073,-0.47,-0.347,-0.029,0.535,0.508,0.314,-1.043,-0.026
'0:00.642',0.369,-1.361,-1.73,0.495,1.05,-1.545,0.075,-0.469,-0.344,-0.027,0.535,0.508,0.314,-1.041,-0.028
'0:00.643',0.367,-1.362,-1.728,0.497,1.048,-1.545,0.073,-0.469,-0.344,-0.028,0.535,0.507,0.312,-1.042,-0.027
'0:00.644',0.367,-1.363,-1.73,0.497,1.048,-1.546,0.073,-0.468,-0.344,-0.027,0.534,0.508,0.313,-1.042,-0.025
'0:00.645',0.37,-1.363,-1.733,0.496,1.052,-1.548,0.073,-0.467,-0.344,-0.026,0.534,0.508,0.315,-1.04,-0.025
'0:00.646',0.367,-1.367,-1.734,0.499,1.051,-1.55,0.075,-0.468,-0.345,-0.028,0.531,0.505,0.313,-1.042,-0.026
'0:00.647',0.364,-1.368,-1.732,0.502,1.048,-1.55,0.076,-0.466,-0.342,-0.026,0.532,0.507,0.312,-1.043,-0.028
'0:00.648',0.358,-1.371,-1.729,0.505,1.044,-1.55,0.073,-0.47,-0.345,-0.029,0.533,0.509,0.315,-1.044,-0.026
'0:00.649',0.357,-1.372,-1.73,0.507,1.044,-1.55,0.075,-0.469,-0.345,-0.029,0.53,0.506,0.313,-1.047,-0.028
'0:00.650',0.36,-1.367,-1.728,0.503,1.044,-1.548,0.079,-0.463,-0.339,-0.025,0.529,0.503,0.311,-1.04,-0.03
'0:00.651',0.362,-1.367,-1.73,0.502,1.046,-1.548,0.077,-0.465,-0.341,-0.028,0.529,0.502,0.312,-1.039,-0.03
'0:00.652',0.364,-1.367,-1.73,0.501,1.047,-1.548,0.076,-0.465,-0.341,-0.028,0.531,0.505,0.312,-1.04,-0.03
'0:00.653',0.361,-1.365,-1.726,0.501,1.044,-1.545,0.078,-0.464,-0.341,-0.027,0.532,0.504,0.314,-1.039,-0.03
'0:00.654',0.358,-1.367,-1.724,0.504,1.041,-1.545,0.081,-0.462,-0.337,-0.024,0.533,0.502,0.311,-1.04,-0.032
'0:00.655',0.362,-1.362,-1.724,0.5,1.043,-1.543,0.083,-0.46,-0.335,-0.021,0.535,0.504,0.309,-1.038,-0.035
'0:00.656',0.363,-1.358,-1.722,0.497,1.042,-1.54,0.082,-0.46,-0.335,-0.022,0.533,0.504,0.31,-1.034,-0.035
'0:00.657',0.357,-1.361,-1.718,0.501,1.038,-1.539,0.081,-0.461,-0.336,-0.025,0.528,0.499,0.307,-1.032,-0.035
'0:00.658',0.356,-1.361,-1.718,0.502,1.037,-1.539,0.081,-0.461,-0.337,-0.027,0.526,0.497,0.305,-1.031,-0.035
'0:00.659',0.361,-1.358,-1.72,0.498,1.04,-1.538,0.08,-0.461,-0.335,-0.026,0.529,0.5,0.309,-1.028,-0.035
'0:00.660',0.369,-1.353,-1.722,0.492,1.046,-1.538,0.08,-0.459,-0.335,-0.025,0.53,0.502,0.311,-1.031,-0.033
'0:00.661',0.371,-1.351,-1.722,0.489,1.046,-1.536,0.082,-0.457,-0.333,-0.021,0.531,0.504,0.313,-1.028,-0.035
'0:00.662',0.365,-1.35,-1.716,0.492,1.04,-1.532,0.084,-0.455,-0.331,-0.019,0.533,0.505,0.312,-1.026,-0.038
'0:00.663',0.364,-1.35,-1.714,0.492,1.039,-1.532,0.083,-0.456,-0.332,-0.021,0.531,0.502,0.31,-1.029,-0.038
'0:00.664',0.365,-1.351,-1.716,0.492,1.041,-1.533,0.081,-0.458,-0.333,-0.022,0.528,0.5,0.31,-1.027,-0.036
'0:00.665',0.361,-1.352,-1.714,0.495,1.038,-1.532,0.08,-0.457,-0.333,-0.021,0.53,0.501,0.311,-1.026,-0.037
'0:00.666',0.36,-1.351,-1.712,0.495,1.036,-1.531,0.081,-0.457,-0.332,-0.019,0.53,0.503,0.313,-1.027,-0.038
'0:00.667',0.362,-1.351,-1.714,0.494,1.038,-1.532,0.081,-0.456,-0.332,-0.019,0.531,0.504,0.314,-1.027,-0.04
'0:00.668',0.36,-1.353,-1.712,0.496,1.036,-1.532,0.083,-0.454,-0.329,-0.017,0.531,0.504,0.313,-1.025,-0.042
'0:00.669',0.359,-1.354,-1.713,0.497,1.036,-1.534,0.084,-0.455,-0.331,-0.018,0.529,0.503,0.314,-1.026,-0.04
'0:00.670',0.362,-1.352,-1.714,0.494,1.038,-1.532,0.081,-0.455,-0.33,-0.017,0.531,0.505,0.315,-1.026,-0.038
'0:00.671',0.363,-1.347,-1.711,0.491,1.037,-1.529,0.082,-0.451,-0.325,-0.011,0.534,0.506,0.315,-1.024,-0.041
'0:00.672',0.362,-1.349,-1.711,0.492,1.037,-1.53,0.083,-0.45,-0.325,-0.01,0.536,0.506,0.313,-1.026,-0.041
'0:00.673',0.361,-1.35,-1.712,0.494,1.036,-1.53,0.084,-0.45,-0.325,-0.007,0.536,0.505,0.313,-1.026,-0.043
'0:00.674',0.363,-1.35,-1.713,0.493,1.038,-1.532,0.08,-0.452,-0.325,-0.007,0.536,0.506,0.315,-1.026,-0.041
'0:00.675',0.363,-1.349,-1.712,0.492,1.038,-1.53,0.08,-0.452,-0.326,-0.009,0.536,0.507,0.315,-1.026,-0.041
'0:00.676',0.365,-1.345,-1.711,0.49,1.038,-1.528,0.083,-0.447,-0.324,-0.007,0.537,0.509,0.315,-1.025,-0.042
'0:00.677',0.368,-1.345,-1.713,0.487,1.04,-1.528,0.081,-0.45,-0.325,-0.008,0.538,0.51,0.318,-1.024,-0.041
'0:00.678',0.366,-1.345,-1.711,0.489,1.038,-1.528,0.081,-0.452,-0.326,-0.008,0.539,0.509,0.317,-1.026,-0.042
'0:00.679',0.367,-1.342,-1.71,0.487,1.039,-1.526,0.082,-0.449,-0.323,-0.004,0.542,0.512,0.319,-1.024,-0.043
'0:00.680',0.366,-1.342,-1.708,0.487,1.038,-1.525,0.083,-0.449,-0.324,-0.006,0.542,0.512,0.317,-1.021,-0.042
'0:00.681',0.362,-1.349,-1.712,0.493,1.037,-1.53,0.081,-0.454,-0.327,-0.011,0.537,0.509,0.313,-1.028,-0.042
'0:00.682',0.363,-1.353,-1.716,0.494,1.04,-1.534,0.078,-0.455,-0.329,-0.012,0.537,0.508,0.314,-1.03,-0.041
'0:00.683',0.364,-1.351,-1.716,0.493,1.04,-1.533,0.077,-0.454,-0.33,-0.012,0.539,0.507,0.313,-1.026,-0.04
'0:00.684',0.364,-1.349,-1.713,0.492,1.039,-1.53,0.079,-0.454,-0.328,-0.011,0.538,0.507,0.314,-1.024,-0.042
'0:00.685',0.364,-1.345,-1.709,0.49,1.036,-1.527,0.083,-0.451,-0.326,-0.011,0.537,0.507,0.314,-1.02,-0.043
'0:00.686',0.361,-1.345,-1.706,0.491,1.034,-1.525,0.086,-0.444,-0.32,-0.009,0.533,0.506,0.312,-1.02,-0.045
'0:00.687',0.356,-1.351,-1.707,0.496,1.032,-1.528,0.095,-0.433,-0.31,-0.005,0.53,0.504,0.309,-1.024,-0.052
'0:00.688',0.357,-1.347,-1.704,0.495,1.03,-1.526,0.105,-0.422,-0.3,0.001,0.529,0.502,0.306,-1.024,-0.058
'0:00.689',0.365,-1.333,-1.698,0.484,1.032,-1.516,0.116,-0.408,-0.286,0.011,0.534,0.504,0.306,-1.018,-0.066
'0:00.690',0.364,-1.329,-1.694,0.482,1.028,-1.511,0.123,-0.395,-0.27,0.024,0.536,0.503,0.306,-1.012,-0.075
'0:00.691',0.361,-1.333,-1.694,0.485,1.027,-1.513,0.13,-0.378,-0.251,0.041,0.539,0.499,0.306,-1.014,-0.087
'0:00.692',0.362,-1.329,-1.692,0.483,1.028,-1.51,0.138,-0.356,-0.229,0.065,0.546,0.498,0.308,-1.011,-0.101
'0:00.693',0.365,-1.321,-1.687,0.477,1.026,-1.504,0.151,-0.333,-0.202,0.089,0.551,0.498,0.31,-1.004,-0.116
'0:00.694',0.369,-1.317,-1.685,0.473,1.027,-1.501,0.166,-0.303,-0.173,0.113,0.554,0.495,0.312,-1.002,-0.133
'0:00.695',0.365,-1.314,-1.679,0.474,1.022,-1.496,0.178,-0.277,-0.147,0.133,0.556,0.492,0.312,-0.999,-0.149
'0:00.696',0.367,-1.31,-1.677,0.471,1.022,-1.494,0.19,-0.254,-0.122,0.157,0.566,0.492,0.316,-0.994,-0.164
'0:00.697',0.371,-1.306,-1.679,0.467,1.025,-1.492,0.194,-0.236,-0.098,0.191,0.586,0.501,0.327,-0.989,-0.174
'0:00.698',0.383,-1.302,-1.684,0.459,1.033,-1.492,0.192,-0.223,-0.079,0.229,0.611,0.509,0.341,-0.986,-0.185
'0:00.699',0.4,-1.296,-1.696,0.448,1.048,-1.496,0.184,-0.213,-0.063,0.268,0.641,0.517,0.357,-0.988,-0.195
'0:00.700',0.413,-1.292,-1.705,0.439,1.06,-1.498,0.175,-0.206,-0.048,0.308,0.673,0.53,0.378,-0.99,-0.2
'0:00.701',0.434,-1.294,-1.729,0.429,1.082,-1.512,0.167,-0.192,-0.029,0.356,0.713,0.544,0.402,-0.998,-0.206
'0:00.702',0.456,-1.295,-1.75,0.419,1.103,-1.522,0.172,-0.147,0.019,0.421,0.749,0.553,0.425,-1.005,-0.226
'0:00.703',0.483,-1.29,-1.774,0.403,1.129,-1.532,0.187,-0.079,0.093,0.504,0.784,0.561,0.449,-1.005,-0.254
'0:00.704',0.514,-1.284,-1.798,0.385,1.157,-1.541,0.197,-0.009,0.167,0.592,0.832,0.577,0.48,-1.002,-0.282
'0:00.705',0.544,-1.276,-1.821,0.365,1.183,-1.548,0.203,0.05,0.23,0.666,0.875,0.595,0.514,-1.001,-0.308
'0:00.706',0.577,-1.265,-1.843,0.344,1.21,-1.554,0.213,0.116,0.297,0.746,0.925,0.616,0.55,-0.997,-0.336
'0:00.707',0.604,-1.251,-1.855,0.323,1.23,-1.553,0.235,0.205,0.388,0.846,0.986,0.636,0.588,-0.993,-0.374
'0:00.708',0.639,-1.238,-1.877,0.299,1.259,-1.558,0.24,0.27,0.459,0.935,1.049,0.663,0.63,-0.993,-0.402
'0:00.709',0.672,-1.218,-1.89,0.273,1.282,-1.554,0.234,0.302,0.498,1.006,1.115,0.696,0.674,-0.984,-0.418
'0:00.710',0.703,-1.199,-1.903,0.247,1.303,-1.55,0.24,0.355,0.552,1.079,1.168,0.721,0.714,-0.974,-0.444
'0:00.711',0.743,-1.185,-1.929,0.221,1.336,-1.556,0.246,0.418,0.623,1.164,1.228,0.748,0.757,-0.973,-0.472
'0:00.712',0.78,-1.16,-1.94,0.19,1.361,-1.55,0.246,0.449,0.666,1.234,1.288,0.781,0.802,-0.961,-0.495
'0:00.713',0.819,-1.139,-1.958,0.16,1.389,-1.548,0.23,0.426,0.658,1.284,1.354,0.818,0.848,-0.951,-0.504
'0:00.714',0.859,-1.121,-1.98,0.131,1.419,-1.55,0.199,0.368,0.618,1.327,1.428,0.857,0.895,-0.943,-0.496
'0:00.715',0.898,-1.084,-1.982,0.092,1.44,-1.533,0.147,0.267,0.534,1.35,1.508,0.906,0.949,-0.921,-0.476
'0:00.716',0.924,-1.038,-1.962,0.057,1.443,-1.5,0.089,0.138,0.426,1.353,1.577,0.955,0.991,-0.891,-0.449
'0:00.717',0.941,-0.988,-1.929,0.023,1.435,-1.458,0.021,-0.015,0.293,1.331,1.631,0.998,1.022,-0.854,-0.411
'0:00.718',0.961,-0.936,-1.897,-0.013,1.429,-1.417,-0.065,-0.209,0.116,1.287,1.692,1.048,1.057,-0.813,-0.357
'0:00.719',0.975,-0.895,-1.871,-0.041,1.423,-1.383,-0.152,-0.413,-0.079,1.222,1.738,1.093,1.087,-0.782,-0.286
'0:00.720',0.977,-0.877,-1.855,-0.051,1.417,-1.366,-0.234,-0.624,-0.286,1.13,1.766,1.129,1.105,-0.768,-0.204
'0:00.721',0.96,-0.846,-1.806,-0.058,1.383,-1.325,-0.303,-0.819,-0.481,1.031,1.774,1.16,1.109,-0.737,-0.134
'0:00.722',0.924,-0.796,-1.722,-0.065,1.323,-1.258,-0.358,-0.989,-0.656,0.915,1.761,1.182,1.096,-0.688,-0.074
'0:00.723',0.873,-0.755,-1.629,-0.059,1.251,-1.192,-0.412,-1.163,-0.842,0.769,1.718,1.192,1.065,-0.641,-0.009
'0:00.724',0.817,-0.75,-1.566,-0.034,1.192,-1.157,-0.458,-1.333,-1.033,0.593,1.641,1.185,1.02,-0.627,0.07
'0:00.725',0.743,-0.782,-1.525,0.019,1.134,-1.153,-0.473,-1.484,-1.216,0.385,1.528,1.155,0.951,-0.642,0.145
'0:00.726',0.66,-0.79,-1.452,0.065,1.056,-1.121,-0.509,-1.651,-1.397,0.171,1.411,1.127,0.874,-0.631,0.224
'0:00.727',0.59,-0.807,-1.397,0.108,0.994,-1.101,-0.555,-1.816,-1.583,-0.054,1.294,1.105,0.804,-0.63,0.318
'0:00.728',0.514,-0.857,-1.371,0.171,0.943,-1.113,-0.591,-1.98,-1.782,-0.313,1.152,1.063,0.72,-0.658,0.421
'0:00.729',0.442,-0.921,-1.362,0.239,0.901,-1.141,-0.608,-2.111,-1.938,-0.552,1.002,1.01,0.629,-0.699,0.511
'0:00.730',0.383,-1.012,-1.395,0.314,0.888,-1.202,-0.605,-2.197,-2.057,-0.775,0.846,0.948,0.538,-0.766,0.585
'0:00.731',0.334,-1.079,-1.413,0.372,0.874,-1.246,-0.611,-2.276,-2.16,-0.988,0.697,0.892,0.456,-0.817,0.656
'0:00.732',0.285,-1.12,-1.405,0.417,0.846,-1.262,-0.605,-2.315,-2.211,-1.137,0.581,0.848,0.387,-0.84,0.7
'0:00.733',0.247,-1.166,-1.413,0.459,0.831,-1.29,-0.592,-2.325,-2.235,-1.257,0.473,0.804,0.328,-0.869,0.734
'0:00.734',0.216,-1.204,-1.421,0.494,0.819,-1.312,-0.581,-2.341,-2.262,-1.377,0.371,0.766,0.274,-0.894,0.771
'0:00.735',0.191,-1.223,-1.414,0.515,0.802,-1.319,-0.592,-2.373,-2.293,-1.46,0.31,0.745,0.24,-0.904,0.807
'0:00.736',0.177,-1.237,-1.414,0.529,0.795,-1.325,-0.608,-2.377,-2.295,-1.49,0.279,0.734,0.226,-0.911,0.833
'0:00.737',0.168,-1.28,-1.448,0.556,0.807,-1.363,-0.611,-2.357,-2.275,-1.504,0.24,0.709,0.206,-0.95,0.85
'0:00.738',0.135,-1.292,-1.427,0.579,0.78,-1.359,-0.607,-2.322,-2.241,-1.504,0.208,0.679,0.175,-0.95,0.852
'0:00.739',0.087,-1.261,-1.348,0.587,0.718,-1.304,-0.594,-2.269,-2.184,-1.474,0.2,0.663,0.146,-0.903,0.835
'0:00.740',0.07,-1.249,-1.32,0.589,0.695,-1.284,-0.58,-2.204,-2.114,-1.42,0.209,0.652,0.139,-0.883,0.812
'0:00.741',0.065,-1.276,-1.341,0.605,0.703,-1.308,-0.55,-2.119,-2.027,-1.353,0.212,0.633,0.135,-0.9,0.785
'0:00.742',0.054,-1.312,-1.367,0.628,0.711,-1.339,-0.508,-2.027,-1.935,-1.286,0.209,0.606,0.121,-0.922,0.749
'0:00.743',0.054,-1.318,-1.373,0.632,0.714,-1.345,-0.467,-1.937,-1.841,-1.214,0.224,0.593,0.118,-0.924,0.71
'0:00.744',0.046,-1.321,-1.367,0.636,0.707,-1.343,-0.419,-1.851,-1.753,-1.144,0.236,0.577,0.111,-0.923,0.665
'0:00.745',0.038,-1.344,-1.382,0.652,0.71,-1.363,-0.369,-1.768,-1.671,-1.085,0.232,0.548,0.094,-0.934,0.616
'0:00.746',0.043,-1.371,-1.414,0.664,0.729,-1.393,-0.329,-1.681,-1.585,-1.025,0.23,0.526,0.089,-0.955,0.574
'0:00.747',0.044,-1.387,-1.431,0.67,0.738,-1.409,-0.294,-1.587,-1.485,-0.952,0.234,0.507,0.086,-0.967,0.522
'0:00.748',0.062,-1.41,-1.472,0.673,0.767,-1.441,-0.262,-1.49,-1.389,-0.884,0.235,0.487,0.088,-0.993,0.477
'0:00.749',0.08,-1.431,-1.511,0.674,0.795,-1.471,-0.229,-1.403,-1.302,-0.827,0.239,0.472,0.095,-1.018,0.436
'0:00.750',0.09,-1.443,-1.534,0.675,0.812,-1.488,-0.185,-1.313,-1.212,-0.761,0.249,0.46,0.098,-1.034,0.383
'0:00.751',0.113,-1.448,-1.56,0.667,0.837,-1.504,-0.148,-1.23,-1.127,-0.696,0.263,0.452,0.107,-1.048,0.335
'0:00.752',0.13,-1.448,-1.578,0.658,0.854,-1.512,-0.127,-1.164,-1.058,-0.641,0.276,0.443,0.115,-1.055,0.293
'0:00.753',0.148,-1.458,-1.607,0.654,0.877,-1.532,-0.106,-1.103,-0.995,-0.59,0.283,0.431,0.12,-1.071,0.26
'0:00.754',0.168,-1.466,-1.633,0.648,0.9,-1.55,-0.086,-1.045,-0.936,-0.541,0.294,0.426,0.131,-1.082,0.231
'0:00.755',0.183,-1.466,-1.649,0.641,0.916,-1.558,-0.073,-1.002,-0.889,-0.5,0.308,0.427,0.143,-1.089,0.208
'0:00.756',0.2,-1.459,-1.659,0.629,0.929,-1.558,-0.059,-0.953,-0.839,-0.456,0.328,0.432,0.16,-1.087,0.185
'0:00.757',0.218,-1.45,-1.669,0.616,0.944,-1.559,-0.043,-0.9,-0.785,-0.408,0.347,0.439,0.176,-1.084,0.159
'0:00.758',0.233,-1.449,-1.681,0.608,0.957,-1.565,-0.025,-0.849,-0.732,-0.361,0.364,0.443,0.191,-1.085,0.133
'0:00.759',0.244,-1.442,-1.687,0.599,0.966,-1.564,-0.004,-0.795,-0.676,-0.313,0.381,0.445,0.203,-1.081,0.105
'0:00.760',0.261,-1.428,-1.689,0.583,0.975,-1.558,0.015,-0.746,-0.625,-0.269,0.399,0.45,0.217,-1.075,0.081
'0:00.761',0.277,-1.417,-1.694,0.57,0.986,-1.556,0.04,-0.69,-0.57,-0.224,0.418,0.456,0.231,-1.071,0.055
'0:00.762',0.29,-1.406,-1.696,0.558,0.993,-1.55,0.065,-0.64,-0.521,-0.184,0.438,0.464,0.245,-1.062,0.033
'0:00.763',0.304,-1.393,-1.698,0.544,1.001,-1.546,0.082,-0.603,-0.485,-0.154,0.456,0.474,0.26,-1.051,0.018
'0:00.764',0.317,-1.386,-1.703,0.534,1.01,-1.544,0.096,-0.564,-0.447,-0.125,0.47,0.482,0.275,-1.043,0.003
'0:00.765',0.329,-1.375,-1.704,0.523,1.016,-1.54,0.107,-0.525,-0.41,-0.096,0.484,0.492,0.289,-1.038,-0.011
'0:00.766',0.336,-1.365,-1.702,0.514,1.018,-1.533,0.121,-0.492,-0.377,-0.071,0.496,0.498,0.299,-1.029,-0.026
'0:00.767',0.342,-1.361,-1.702,0.509,1.022,-1.532,0.132,-0.468,-0.35,-0.051,0.505,0.501,0.303,-1.027,-0.038
'0:00.768',0.35,-1.356,-1.706,0.503,1.028,-1.531,0.138,-0.445,-0.328,-0.033,0.516,0.505,0.31,-1.026,-0.048
'0:00.769',0.356,-1.351,-1.706,0.497,1.032,-1.528,0.142,-0.426,-0.309,-0.018,0.524,0.509,0.317,-1.018,-0.054
'0:00.770',0.36,-1.344,-1.704,0.492,1.032,-1.524,0.141,-0.413,-0.294,-0.005,0.528,0.509,0.318,-1.014,-0.059
'0:00.771',0.365,-1.337,-1.702,0.485,1.034,-1.519,0.14,-0.4,-0.28,0.007,0.535,0.511,0.321,-1.008,-0.066
'0:00.772',0.373,-1.326,-1.7,0.476,1.036,-1.512,0.137,-0.39,-0.268,0.018,0.542,0.515,0.325,-1.006,-0.068
'0:00.773',0.379,-1.319,-1.698,0.47,1.038,-1.508,0.135,-0.38,-0.258,0.028,0.547,0.518,0.329,-1.002,-0.07
'0:00.774',0.381,-1.316,-1.697,0.467,1.039,-1.506,0.132,-0.373,-0.251,0.033,0.549,0.517,0.33,-0.998,-0.072
'0:00.775',0.382,-1.317,-1.698,0.468,1.04,-1.508,0.131,-0.37,-0.247,0.036,0.546,0.515,0.328,-0.999,-0.075
'0:00.776',0.379,-1.317,-1.696,0.469,1.038,-1.506,0.134,-0.363,-0.24,0.043,0.547,0.515,0.329,-0.996,-0.08
'0:00.777',0.382,-1.313,-1.695,0.466,1.038,-1.504,0.137,-0.355,-0.232,0.051,0.552,0.518,0.332,-0.994,-0.084
'0:00.778',0.383,-1.312,-1.695,0.465,1.039,-1.504,0.137,-0.35,-0.227,0.056,0.556,0.52,0.335,-0.996,-0.085
'0:00.779',0.383,-1.31,-1.694,0.464,1.038,-1.502,0.137,-0.345,-0.222,0.062,0.56,0.52,0.338,-0.996,-0.087
'0:00.780',0.382,-1.31,-1.692,0.464,1.036,-1.5,0.14,-0.338,-0.213,0.068,0.563,0.522,0.338,-0.995,-0.091
'0:00.781',0.377,-1.312,-1.689,0.467,1.033,-1.5,0.143,-0.333,-0.208,0.071,0.562,0.521,0.336,-0.993,-0.095
'0:00.782',0.378,-1.312,-1.689,0.467,1.034,-1.5,0.141,-0.329,-0.205,0.073,0.564,0.522,0.337,-0.992,-0.097
'0:00.783',0.38,-1.31,-1.69,0.466,1.034,-1.5,0.142,-0.326,-0.202,0.076,0.566,0.524,0.339,-0.993,-0.098
'0:00.784',0.387,-1.306,-1.692,0.46,1.039,-1.498,0.144,-0.319,-0.195,0.084,0.57,0.527,0.343,-0.992,-0.101
'0:00.785',0.389,-1.304,-1.694,0.458,1.041,-1.499,0.145,-0.316,-0.191,0.087,0.572,0.528,0.344,-0.991,-0.103
'0:00.786',0.381,-1.31,-1.69,0.465,1.035,-1.5,0.145,-0.314,-0.191,0.087,0.571,0.524,0.341,-0.992,-0.104
'0:00.787',0.38,-1.31,-1.69,0.465,1.035,-1.5,0.147,-0.309,-0.185,0.091,0.572,0.525,0.343,-0.994,-0.106
'0:00.788',0.381,-1.31,-1.691,0.465,1.036,-1.5,0.145,-0.306,-0.181,0.097,0.576,0.528,0.345,-0.994,-0.106
'0:00.789',0.38,-1.31,-1.69,0.465,1.034,-1.5,0.146,-0.302,-0.178,0.1,0.578,0.529,0.348,-0.993,-0.108
'0:00.790',0.382,-1.311,-1.692,0.465,1.037,-1.502,0.147,-0.299,-0.174,0.101,0.578,0.531,0.35,-0.995,-0.11
'0:00.791',0.385,-1.31,-1.695,0.463,1.04,-1.502,0.145,-0.299,-0.172,0.103,0.577,0.531,0.35,-0.99,-0.11
'0:00.792',0.386,-1.31,-1.695,0.462,1.04,-1.502,0.148,-0.294,-0.169,0.109,0.58,0.533,0.352,-0.987,-0.112
'0:00.793',0.387,-1.308,-1.696,0.461,1.042,-1.502,0.149,-0.289,-0.165,0.114,0.583,0.534,0.353,-0.99,-0.114
'0:00.794',0.391,-1.306,-1.696,0.458,1.044,-1.501,0.147,-0.286,-0.161,0.117,0.584,0.533,0.353,-0.991,-0.115
'0:00.795',0.393,-1.306,-1.698,0.456,1.046,-1.502,0.149,-0.283,-0.158,0.12,0.585,0.533,0.354,-0.991,-0.116
'0:00.796',0.399,-1.302,-1.7,0.451,1.05,-1.5,0.149,-0.282,-0.157,0.12,0.584,0.533,0.354,-0.989,-0.117
'0:00.797',0.399,-1.299,-1.698,0.45,1.048,-1.498,0.15,-0.28,-0.154,0.123,0.584,0.532,0.353,-0.987,-0.118
'0:00.798',0.395,-1.302,-1.696,0.454,1.045,-1.498,0.151,-0.278,-0.152,0.124,0.581,0.529,0.35,-0.99,-0.117
'0:00.799',0.394,-1.3,-1.694,0.453,1.044,-1.498,0.151,-0.277,-0.15,0.124,0.58,0.529,0.35,-0.993,-0.116
'0:00.800',0.396,-1.296,-1.692,0.451,1.043,-1.494,0.152,-0.272,-0.145,0.128,0.585,0.531,0.352,-0.99,-0.119
'0:00.801',0.397,-1.296,-1.694,0.45,1.046,-1.495,0.151,-0.27,-0.142,0.128,0.587,0.531,0.353,-0.99,-0.12
'0:00.802',0.404,-1.295,-1.698,0.446,1.051,-1.496,0.15,-0.269,-0.141,0.131,0.589,0.534,0.358,-0.992,-0.119
'0:00.803',0.405,-1.292,-1.698,0.444,1.051,-1.494,0.152,-0.266,-0.138,0.135,0.593,0.536,0.361,-0.989,-0.121
'0:00.804',0.405,-1.294,-1.698,0.445,1.052,-1.496,0.153,-0.265,-0.137,0.137,0.593,0.536,0.361,-0.991,-0.122
'0:00.805',0.408,-1.29,-1.7,0.441,1.054,-1.494,0.153,-0.261,-0.133,0.14,0.595,0.535,0.362,-0.992,-0.124
'0:00.806',0.408,-1.29,-1.698,0.441,1.054,-1.494,0.154,-0.258,-0.131,0.143,0.598,0.536,0.363,-0.989,-0.126
'0:00.807',0.405,-1.291,-1.696,0.444,1.05,-1.493,0.156,-0.259,-0.131,0.144,0.596,0.534,0.361,-0.99,-0.124
'0:00.808',0.401,-1.29,-1.69,0.445,1.046,-1.49,0.159,-0.253,-0.124,0.149,0.599,0.535,0.362,-0.99,-0.127
'0:00.809',0.401,-1.29,-1.691,0.445,1.046,-1.49,0.158,-0.249,-0.121,0.153,0.603,0.536,0.362,-0.99,-0.129
'0:00.810',0.399,-1.292,-1.692,0.447,1.045,-1.492,0.155,-0.251,-0.122,0.153,0.601,0.534,0.362,-0.994,-0.126
'0:00.811',0.402,-1.29,-1.691,0.444,1.046,-1.49,0.16,-0.246,-0.117,0.16,0.606,0.536,0.363,-0.988,-0.131
'0:00.812',0.403,-1.289,-1.692,0.443,1.048,-1.49,0.162,-0.244,-0.115,0.164,0.609,0.537,0.365,-0.986,-0.133
'0:00.813',0.402,-1.291,-1.693,0.445,1.048,-1.492,0.159,-0.243,-0.115,0.163,0.609,0.537,0.365,-0.987,-0.133
'0:00.814',0.406,-1.286,-1.692,0.44,1.048,-1.488,0.16,-0.24,-0.111,0.166,0.611,0.537,0.364,-0.981,-0.135
'0:00.815',0.402,-1.288,-1.69,0.443,1.046,-1.489,0.159,-0.239,-0.111,0.168,0.611,0.535,0.363,-0.984,-0.135
'0:00.816',0.404,-1.29,-1.694,0.443,1.048,-1.492,0.159,-0.239,-0.11,0.169,0.611,0.536,0.365,-0.984,-0.135
'0:00.817',0.409,-1.286,-1.695,0.439,1.052,-1.49,0.159,-0.236,-0.107,0.172,0.615,0.537,0.369,-0.982,-0.135
'0:00.818',0.405,-1.288,-1.692,0.441,1.049,-1.49,0.161,-0.234,-0.104,0.174,0.615,0.534,0.365,-0.983,-0.136
'0:00.819',0.406,-1.286,-1.692,0.44,1.048,-1.488,0.161,-0.233,-0.102,0.176,0.615,0.536,0.366,-0.982,-0.138
'0:00.820',0.405,-1.29,-1.694,0.442,1.05,-1.492,0.16,-0.232,-0.102,0.177,0.617,0.537,0.367,-0.985,-0.138
'0:00.821',0.404,-1.29,-1.694,0.443,1.049,-1.492,0.159,-0.232,-0.102,0.178,0.618,0.538,0.368,-0.985,-0.138
'0:00.822',0.406,-1.288,-1.694,0.441,1.05,-1.49,0.158,-0.23,-0.101,0.179,0.619,0.538,0.369,-0.986,-0.138
'0:00.823',0.409,-1.286,-1.696,0.438,1.052,-1.49,0.16,-0.228,-0.098,0.181,0.619,0.537,0.37,-0.983,-0.139
'0:00.824',0.408,-1.285,-1.693,0.438,1.051,-1.489,0.161,-0.228,-0.095,0.184,0.622,0.541,0.372,-0.981,-0.139
'0:00.825',0.406,-1.288,-1.694,0.441,1.05,-1.49,0.16,-0.225,-0.093,0.184,0.621,0.538,0.37,-0.984,-0.141
'0:00.826',0.411,-1.288,-1.698,0.438,1.055,-1.493,0.16,-0.22,-0.089,0.187,0.622,0.539,0.371,-0.978,-0.143
'0:00.827',0.412,-1.286,-1.699,0.436,1.056,-1.492,0.163,-0.218,-0.088,0.19,0.624,0.54,0.373,-0.977,-0.143
'0:00.828',0.412,-1.288,-1.7,0.438,1.056,-1.494,0.159,-0.219,-0.089,0.191,0.623,0.537,0.373,-0.982,-0.142
'0:00.829',0.409,-1.291,-1.7,0.441,1.054,-1.496,0.157,-0.218,-0.089,0.191,0.623,0.537,0.373,-0.983,-0.143
'0:00.830',0.407,-1.29,-1.697,0.442,1.052,-1.494,0.16,-0.216,-0.086,0.193,0.624,0.535,0.371,-0.981,-0.145
'0:00.831',0.406,-1.292,-1.698,0.443,1.051,-1.494,0.16,-0.213,-0.083,0.196,0.625,0.535,0.37,-0.982,-0.146
'0:00.832',0.407,-1.294,-1.702,0.443,1.054,-1.498,0.16,-0.212,-0.081,0.198,0.626,0.537,0.372,-0.98,-0.146
'0:00.833',0.41,-1.292,-1.703,0.441,1.057,-1.497,0.157,-0.213,-0.081,0.2,0.627,0.537,0.372,-0.979,-0.148
'0:00.834',0.409,-1.294,-1.702,0.442,1.056,-1.498,0.158,-0.21,-0.079,0.201,0.627,0.536,0.37,-0.984,-0.149
'0:00.835',0.415,-1.29,-1.705,0.437,1.06,-1.497,0.161,-0.205,-0.075,0.205,0.629,0.537,0.372,-0.985,-0.149
'0:00.836',0.418,-1.286,-1.704,0.433,1.062,-1.495,0.16,-0.204,-0.074,0.208,0.629,0.538,0.373,-0.986,-0.148
'0:00.837',0.417,-1.285,-1.702,0.433,1.06,-1.494,0.158,-0.202,-0.071,0.207,0.628,0.538,0.375,-0.984,-0.147
'0:00.838',0.414,-1.286,-1.7,0.435,1.058,-1.492,0.157,-0.2,-0.07,0.209,0.63,0.538,0.376,-0.982,-0.148
'0:00.839',0.415,-1.285,-1.7,0.434,1.058,-1.492,0.157,-0.2,-0.07,0.212,0.634,0.54,0.379,-0.982,-0.15
'0:00.840',0.419,-1.282,-1.702,0.431,1.061,-1.492,0.156,-0.199,-0.068,0.212,0.634,0.537,0.379,-0.982,-0.15
'0:00.841',0.422,-1.278,-1.7,0.427,1.062,-1.489,0.157,-0.197,-0.066,0.215,0.634,0.539,0.382,-0.983,-0.15
'0:00.842',0.424,-1.276,-1.7,0.425,1.062,-1.488,0.158,-0.195,-0.063,0.218,0.637,0.541,0.385,-0.977,-0.151
'0:00.843',0.422,-1.277,-1.7,0.427,1.061,-1.488,0.157,-0.195,-0.064,0.217,0.637,0.54,0.385,-0.978,-0.152
'0:00.844',0.423,-1.275,-1.698,0.425,1.061,-1.486,0.154,-0.196,-0.064,0.217,0.637,0.54,0.387,-0.976,-0.151
'0:00.845',0.424,-1.274,-1.698,0.424,1.061,-1.486,0.157,-0.192,-0.06,0.22,0.637,0.539,0.387,-0.972,-0.153
'0:00.846',0.422,-1.277,-1.7,0.427,1.062,-1.488,0.158,-0.188,-0.057,0.223,0.64,0.543,0.389,-0.975,-0.155
'0:00.847',0.424,-1.278,-1.702,0.426,1.063,-1.489,0.157,-0.185,-0.052,0.227,0.644,0.546,0.393,-0.974,-0.155
'0:00.848',0.426,-1.277,-1.704,0.425,1.065,-1.49,0.157,-0.184,-0.052,0.229,0.645,0.547,0.395,-0.976,-0.155
'0:00.849',0.426,-1.277,-1.704,0.425,1.065,-1.49,0.155,-0.182,-0.05,0.232,0.644,0.546,0.397,-0.974,-0.157
'0:00.850',0.432,-1.272,-1.704,0.42,1.068,-1.488,0.157,-0.177,-0.043,0.236,0.643,0.544,0.397,-0.973,-0.159
'0:00.851',0.431,-1.273,-1.705,0.42,1.068,-1.488,0.156,-0.178,-0.044,0.235,0.641,0.542,0.395,-0.973,-0.159
'0:00.852',0.427,-1.276,-1.703,0.423,1.065,-1.489,0.155,-0.176,-0.043,0.236,0.641,0.541,0.394,-0.973,-0.16
'0:00.853',0.433,-1.272,-1.705,0.419,1.069,-1.488,0.157,-0.172,-0.038,0.24,0.643,0.542,0.397,-0.975,-0.161
'0:00.854',0.434,-1.271,-1.706,0.418,1.07,-1.488,0.156,-0.172,-0.038,0.24,0.64,0.544,0.397,-0.974,-0.161
'0:00.855',0.432,-1.271,-1.702,0.419,1.067,-1.486,0.159,-0.168,-0.034,0.242,0.639,0.545,0.396,-0.974,-0.161
'0:00.856',0.438,-1.268,-1.705,0.414,1.071,-1.486,0.16,-0.163,-0.029,0.245,0.641,0.546,0.4,-0.969,-0.164
'0:00.857',0.441,-1.266,-1.707,0.412,1.074,-1.486,0.159,-0.163,-0.029,0.247,0.64,0.546,0.402,-0.969,-0.163
'0:00.858',0.439,-1.268,-1.708,0.414,1.073,-1.488,0.159,-0.16,-0.025,0.249,0.641,0.548,0.402,-0.973,-0.164
'0:00.859',0.438,-1.271,-1.709,0.416,1.073,-1.49,0.162,-0.156,-0.021,0.252,0.644,0.548,0.402,-0.975,-0.167
'0:00.860',0.443,-1.267,-1.71,0.411,1.077,-1.488,0.162,-0.153,-0.018,0.255,0.645,0.548,0.403,-0.971,-0.167
'0:00.861',0.446,-1.264,-1.71,0.409,1.078,-1.487,0.16,-0.15,-0.015,0.258,0.647,0.55,0.405,-0.971,-0.167
'0:00.862',0.444,-1.267,-1.711,0.411,1.077,-1.488,0.16,-0.149,-0.014,0.26,0.647,0.549,0.405,-0.972,-0.168
'0:00.863',0.448,-1.266,-1.713,0.409,1.08,-1.489,0.158,-0.15,-0.014,0.26,0.645,0.548,0.405,-0.969,-0.169
'0:00.864',0.448,-1.263,-1.711,0.407,1.079,-1.487,0.16,-0.143,-0.007,0.265,0.648,0.549,0.406,-0.97,-0.172
'0:00.865',0.451,-1.262,-1.712,0.405,1.081,-1.487,0.159,-0.14,-0.004,0.27,0.651,0.55,0.407,-0.972,-0.172
'0:00.866',0.451,-1.262,-1.712,0.406,1.081,-1.487,0.156,-0.141,-0.004,0.27,0.652,0.551,0.408,-0.969,-0.172
'0:00.867',0.448,-1.264,-1.712,0.407,1.08,-1.488,0.159,-0.137,0.001,0.274,0.655,0.552,0.408,-0.969,-0.174
'0:00.868',0.453,-1.262,-1.714,0.405,1.083,-1.488,0.16,-0.133,0.004,0.277,0.657,0.551,0.409,-0.971,-0.176
'0:00.869',0.455,-1.26,-1.714,0.402,1.084,-1.486,0.158,-0.131,0.006,0.28,0.658,0.549,0.409,-0.97,-0.176
'0:00.870',0.453,-1.26,-1.712,0.404,1.083,-1.486,0.158,-0.13,0.009,0.282,0.66,0.551,0.41,-0.972,-0.178
'0:00.871',0.452,-1.26,-1.712,0.404,1.081,-1.486,0.16,-0.123,0.013,0.286,0.662,0.555,0.412,-0.969,-0.18
'0:00.872',0.453,-1.26,-1.714,0.404,1.083,-1.487,0.161,-0.118,0.018,0.29,0.664,0.557,0.414,-0.968,-0.181
'0:00.873',0.457,-1.262,-1.718,0.403,1.087,-1.49,0.161,-0.116,0.021,0.292,0.665,0.557,0.413,-0.971,-0.182
'0:00.874',0.454,-1.262,-1.716,0.404,1.085,-1.488,0.162,-0.114,0.024,0.293,0.664,0.554,0.412,-0.97,-0.183
'0:00.875',0.453,-1.261,-1.714,0.404,1.083,-1.487,0.164,-0.11,0.028,0.296,0.665,0.557,0.415,-0.971,-0.183
'0:00.876',0.454,-1.261,-1.714,0.404,1.084,-1.488,0.166,-0.106,0.03,0.298,0.664,0.559,0.415,-0.972,-0.182
'0:00.877',0.457,-1.262,-1.718,0.402,1.088,-1.49,0.164,-0.105,0.032,0.3,0.665,0.559,0.417,-0.972,-0.184
'0:00.878',0.465,-1.258,-1.724,0.397,1.095,-1.491,0.168,-0.099,0.039,0.305,0.669,0.56,0.419,-0.97,-0.189
'0:00.879',0.466,-1.256,-1.722,0.396,1.094,-1.49,0.168,-0.093,0.045,0.309,0.669,0.559,0.419,-0.969,-0.192
'0:00.880',0.464,-1.259,-1.723,0.397,1.093,-1.491,0.167,-0.093,0.046,0.314,0.67,0.558,0.419,-0.971,-0.192
'0:00.881',0.468,-1.262,-1.73,0.397,1.099,-1.496,0.169,-0.088,0.051,0.317,0.67,0.557,0.421,-0.972,-0.192
'0:00.882',0.47,-1.26,-1.731,0.395,1.101,-1.496,0.17,-0.083,0.056,0.321,0.674,0.56,0.423,-0.972,-0.195
'0:00.883',0.466,-1.262,-1.728,0.398,1.097,-1.494,0.173,-0.076,0.061,0.325,0.675,0.559,0.423,-0.97,-0.197
'0:00.884',0.466,-1.26,-1.726,0.397,1.095,-1.492,0.173,-0.071,0.066,0.329,0.681,0.562,0.427,-0.967,-0.199
'0:00.885',0.474,-1.254,-1.728,0.39,1.101,-1.491,0.171,-0.068,0.071,0.337,0.686,0.567,0.434,-0.968,-0.2
'0:00.886',0.473,-1.254,-1.726,0.39,1.1,-1.49,0.172,-0.064,0.075,0.34,0.686,0.561,0.432,-0.968,-0.201
'0:00.887',0.471,-1.254,-1.724,0.391,1.097,-1.489,0.173,-0.06,0.079,0.344,0.69,0.562,0.432,-0.968,-0.203
'0:00.888',0.478,-1.251,-1.729,0.386,1.103,-1.49,0.172,-0.054,0.086,0.351,0.696,0.567,0.439,-0.969,-0.204
'0:00.889',0.482,-1.248,-1.73,0.383,1.106,-1.488,0.173,-0.05,0.089,0.356,0.702,0.569,0.441,-0.969,-0.207
'0:00.890',0.478,-1.249,-1.727,0.385,1.103,-1.488,0.174,-0.048,0.093,0.359,0.705,0.57,0.441,-0.967,-0.21
'0:00.891',0.476,-1.254,-1.73,0.388,1.103,-1.492,0.172,-0.045,0.096,0.36,0.707,0.571,0.445,-0.967,-0.209
'0:00.892',0.482,-1.252,-1.734,0.385,1.108,-1.493,0.173,-0.038,0.102,0.369,0.711,0.572,0.449,-0.967,-0.213
'0:00.893',0.484,-1.252,-1.737,0.384,1.111,-1.494,0.175,-0.032,0.108,0.376,0.71,0.571,0.45,-0.963,-0.214
'0:00.894',0.486,-1.252,-1.739,0.383,1.113,-1.496,0.175,-0.027,0.113,0.379,0.713,0.572,0.45,-0.963,-0.217
'0:00.895',0.484,-1.252,-1.736,0.384,1.11,-1.494,0.178,-0.021,0.12,0.386,0.717,0.573,0.45,-0.963,-0.222
'0:00.896',0.482,-1.251,-1.732,0.384,1.107,-1.492,0.177,-0.016,0.124,0.388,0.718,0.573,0.452,-0.963,-0.223
'0:00.897',0.486,-1.247,-1.734,0.38,1.11,-1.49,0.177,-0.013,0.128,0.391,0.719,0.572,0.455,-0.961,-0.224
'0:00.898',0.491,-1.246,-1.736,0.377,1.114,-1.49,0.179,-0.006,0.133,0.396,0.721,0.574,0.456,-0.963,-0.226
'0:00.899',0.503,-1.236,-1.74,0.366,1.122,-1.488,0.183,0.003,0.143,0.405,0.728,0.58,0.46,-0.963,-0.228
'0:00.900',0.51,-1.23,-1.74,0.36,1.125,-1.486,0.185,0.009,0.15,0.412,0.731,0.583,0.463,-0.962,-0.231
'0:00.901',0.51,-1.232,-1.742,0.36,1.127,-1.487,0.186,0.016,0.156,0.418,0.735,0.585,0.468,-0.961,-0.234
'0:00.902',0.511,-1.232,-1.744,0.36,1.128,-1.488,0.185,0.021,0.163,0.422,0.739,0.588,0.472,-0.956,-0.235
'0:00.903',0.509,-1.23,-1.74,0.36,1.124,-1.485,0.186,0.025,0.167,0.424,0.738,0.583,0.469,-0.956,-0.238
'0:00.904',0.512,-1.228,-1.741,0.358,1.127,-1.484,0.189,0.033,0.173,0.43,0.738,0.579,0.468,-0.959,-0.241
'0:00.905',0.516,-1.226,-1.743,0.354,1.129,-1.484,0.19,0.039,0.18,0.437,0.742,0.584,0.472,-0.957,-0.242
'0:00.906',0.518,-1.222,-1.74,0.351,1.129,-1.48,0.191,0.042,0.184,0.441,0.743,0.584,0.474,-0.952,-0.244
'0:00.907',0.52,-1.222,-1.742,0.351,1.131,-1.482,0.19,0.047,0.189,0.445,0.741,0.582,0.473,-0.951,-0.247
'0:00.908',0.518,-1.223,-1.742,0.351,1.13,-1.482,0.189,0.054,0.197,0.452,0.743,0.582,0.474,-0.953,-0.249
'0:00.909',0.519,-1.222,-1.742,0.351,1.131,-1.482,0.192,0.059,0.202,0.458,0.746,0.582,0.475,-0.951,-0.253
'0:00.910',0.523,-1.22,-1.744,0.348,1.134,-1.482,0.195,0.069,0.21,0.466,0.748,0.584,0.476,-0.948,-0.256
'0:00.911',0.53,-1.218,-1.748,0.344,1.139,-1.484,0.195,0.074,0.215,0.471,0.75,0.584,0.48,-0.947,-0.258
'0:00.912',0.53,-1.22,-1.75,0.344,1.14,-1.484,0.194,0.076,0.22,0.475,0.751,0.584,0.482,-0.949,-0.258
'0:00.913',0.526,-1.219,-1.746,0.345,1.136,-1.482,0.195,0.082,0.227,0.484,0.754,0.585,0.483,-0.949,-0.263
'0:00.914',0.531,-1.214,-1.744,0.341,1.138,-1.479,0.199,0.095,0.235,0.49,0.756,0.587,0.485,-0.945,-0.266
'0:00.915',0.533,-1.21,-1.744,0.338,1.139,-1.476,0.201,0.101,0.243,0.496,0.758,0.588,0.487,-0.943,-0.268
'0:00.916',0.535,-1.209,-1.744,0.337,1.14,-1.476,0.202,0.106,0.25,0.504,0.764,0.592,0.49,-0.94,-0.272
'0:00.917',0.542,-1.207,-1.75,0.332,1.147,-1.478,0.206,0.115,0.258,0.512,0.767,0.594,0.493,-0.94,-0.276
'0:00.918',0.544,-1.208,-1.752,0.332,1.148,-1.48,0.206,0.12,0.265,0.517,0.77,0.594,0.495,-0.94,-0.277
'0:00.919',0.544,-1.208,-1.753,0.332,1.149,-1.48,0.205,0.127,0.272,0.522,0.774,0.596,0.497,-0.94,-0.279
'0:00.920',0.544,-1.209,-1.754,0.332,1.149,-1.482,0.207,0.133,0.277,0.527,0.775,0.595,0.498,-0.943,-0.281
'0:00.921',0.547,-1.208,-1.756,0.33,1.152,-1.482,0.209,0.139,0.281,0.531,0.776,0.596,0.5,-0.942,-0.283
'0:00.922',0.549,-1.204,-1.754,0.327,1.152,-1.479,0.212,0.145,0.289,0.538,0.778,0.597,0.502,-0.938,-0.285
'0:00.923',0.546,-1.204,-1.75,0.328,1.149,-1.477,0.215,0.154,0.297,0.546,0.782,0.599,0.504,-0.939,-0.288
'0:00.924',0.549,-1.204,-1.754,0.327,1.152,-1.478,0.217,0.159,0.304,0.552,0.787,0.599,0.506,-0.94,-0.292
'0:00.925',0.548,-1.203,-1.752,0.327,1.151,-1.478,0.218,0.165,0.31,0.558,0.79,0.599,0.507,-0.934,-0.295
'0:00.926',0.551,-1.199,-1.751,0.324,1.151,-1.475,0.221,0.173,0.317,0.565,0.792,0.6,0.51,-0.933,-0.297
'0:00.927',0.557,-1.196,-1.754,0.319,1.156,-1.476,0.222,0.178,0.323,0.57,0.796,0.603,0.513,-0.935,-0.298
'0:00.928',0.556,-1.197,-1.754,0.32,1.156,-1.476,0.222,0.183,0.328,0.575,0.798,0.603,0.515,-0.936,-0.3
'0:00.929',0.555,-1.197,-1.753,0.321,1.155,-1.474,0.224,0.19,0.334,0.58,0.8,0.602,0.516,-0.937,-0.302
'0:00.930',0.557,-1.196,-1.754,0.319,1.157,-1.476,0.225,0.195,0.339,0.583,0.803,0.605,0.52,-0.939,-0.305
'0:00.931',0.561,-1.194,-1.756,0.316,1.159,-1.475,0.225,0.198,0.343,0.589,0.808,0.61,0.524,-0.938,-0.308
'0:00.932',0.561,-1.194,-1.756,0.317,1.159,-1.475,0.227,0.203,0.349,0.595,0.812,0.615,0.529,-0.938,-0.309
'0:00.933',0.561,-1.198,-1.759,0.318,1.161,-1.478,0.229,0.21,0.355,0.601,0.812,0.611,0.529,-0.938,-0.314
'0:00.934',0.565,-1.194,-1.76,0.315,1.163,-1.477,0.23,0.215,0.36,0.606,0.816,0.613,0.53,-0.933,-0.318
'0:00.935',0.568,-1.191,-1.759,0.311,1.164,-1.475,0.231,0.22,0.365,0.608,0.818,0.616,0.532,-0.927,-0.319
'0:00.936',0.57,-1.192,-1.762,0.311,1.167,-1.477,0.232,0.225,0.37,0.612,0.816,0.612,0.531,-0.928,-0.321
'0:00.937',0.57,-1.193,-1.764,0.311,1.167,-1.478,0.234,0.23,0.373,0.614,0.816,0.613,0.532,-0.933,-0.323
'0:00.938',0.57,-1.194,-1.764,0.311,1.167,-1.478,0.237,0.236,0.378,0.617,0.817,0.612,0.531,-0.931,-0.325
'0:00.939',0.575,-1.191,-1.766,0.307,1.171,-1.478,0.238,0.239,0.384,0.621,0.821,0.614,0.534,-0.931,-0.326
'0:00.940',0.578,-1.186,-1.764,0.303,1.171,-1.475,0.238,0.243,0.388,0.624,0.825,0.617,0.538,-0.931,-0.328
'0:00.941',0.576,-1.185,-1.761,0.304,1.169,-1.472,0.239,0.247,0.393,0.629,0.824,0.614,0.537,-0.927,-0.331
'0:00.942',0.577,-1.183,-1.761,0.303,1.169,-1.472,0.238,0.249,0.395,0.632,0.826,0.611,0.537,-0.927,-0.333
'0:00.943',0.576,-1.183,-1.759,0.303,1.167,-1.471,0.241,0.255,0.399,0.636,0.828,0.612,0.538,-0.926,-0.335
'0:00.944',0.574,-1.183,-1.758,0.304,1.167,-1.47,0.244,0.259,0.404,0.64,0.829,0.614,0.538,-0.922,-0.339
'0:00.945',0.576,-1.183,-1.76,0.303,1.168,-1.472,0.244,0.262,0.405,0.641,0.829,0.614,0.539,-0.925,-0.341
'0:00.946',0.578,-1.181,-1.759,0.3,1.169,-1.47,0.245,0.267,0.409,0.645,0.831,0.615,0.541,-0.927,-0.342
'0:00.947',0.579,-1.179,-1.758,0.299,1.169,-1.468,0.248,0.27,0.414,0.649,0.834,0.616,0.541,-0.922,-0.344
'0:00.948',0.584,-1.178,-1.762,0.297,1.173,-1.47,0.25,0.275,0.418,0.649,0.834,0.616,0.542,-0.923,-0.346
'0:00.949',0.586,-1.177,-1.764,0.295,1.175,-1.47,0.251,0.278,0.422,0.652,0.834,0.616,0.542,-0.923,-0.349
'0:00.950',0.587,-1.179,-1.766,0.296,1.177,-1.473,0.252,0.281,0.424,0.657,0.835,0.618,0.544,-0.923,-0.35
'0:00.951',0.584,-1.181,-1.764,0.298,1.174,-1.472,0.252,0.285,0.427,0.658,0.834,0.617,0.543,-0.923,-0.351
'0:00.952',0.583,-1.18,-1.762,0.298,1.173,-1.471,0.253,0.286,0.431,0.66,0.832,0.615,0.541,-0.921,-0.353
'0:00.953',0.587,-1.179,-1.767,0.296,1.177,-1.473,0.253,0.29,0.434,0.663,0.834,0.617,0.546,-0.919,-0.353
'0:00.954',0.585,-1.181,-1.766,0.298,1.175,-1.474,0.254,0.292,0.433,0.664,0.834,0.619,0.548,-0.919,-0.352
'0:00.955',0.588,-1.179,-1.767,0.295,1.177,-1.473,0.253,0.294,0.435,0.665,0.835,0.618,0.549,-0.922,-0.353
'0:00.956',0.589,-1.179,-1.768,0.295,1.179,-1.474,0.256,0.299,0.44,0.668,0.838,0.62,0.549,-0.922,-0.356
'0:00.957',0.587,-1.182,-1.768,0.297,1.178,-1.475,0.256,0.298,0.441,0.67,0.837,0.621,0.549,-0.922,-0.357
'0:00.958',0.583,-1.181,-1.764,0.298,1.173,-1.472,0.256,0.299,0.442,0.673,0.837,0.619,0.548,-0.92,-0.359
'0:00.959',0.581,-1.179,-1.76,0.298,1.17,-1.468,0.26,0.303,0.445,0.676,0.842,0.617,0.548,-0.917,-0.362
'0:00.960',0.586,-1.177,-1.764,0.295,1.175,-1.47,0.259,0.305,0.449,0.679,0.845,0.618,0.549,-0.918,-0.362
'0:00.961',0.59,-1.175,-1.766,0.292,1.178,-1.47,0.259,0.308,0.452,0.683,0.845,0.622,0.551,-0.917,-0.362
'0:00.962',0.587,-1.177,-1.764,0.294,1.176,-1.47,0.258,0.306,0.45,0.681,0.844,0.62,0.549,-0.917,-0.363
'0:00.963',0.584,-1.176,-1.76,0.295,1.172,-1.468,0.259,0.306,0.449,0.679,0.843,0.618,0.547,-0.918,-0.362
'0:00.964',0.587,-1.171,-1.759,0.291,1.173,-1.465,0.257,0.306,0.449,0.68,0.846,0.622,0.549,-0.916,-0.363
'0:00.965',0.59,-1.168,-1.758,0.289,1.175,-1.463,0.258,0.306,0.449,0.68,0.848,0.623,0.55,-0.914,-0.363
'0:00.966',0.589,-1.169,-1.759,0.289,1.174,-1.464,0.258,0.304,0.447,0.678,0.847,0.623,0.551,-0.915,-0.361
'0:00.967',0.588,-1.171,-1.76,0.291,1.174,-1.465,0.258,0.302,0.446,0.678,0.849,0.626,0.553,-0.916,-0.36
'0:00.968',0.59,-1.166,-1.757,0.287,1.173,-1.462,0.263,0.305,0.448,0.68,0.854,0.629,0.554,-0.913,-0.361
'0:00.969',0.591,-1.165,-1.756,0.286,1.174,-1.46,0.263,0.301,0.447,0.68,0.856,0.63,0.555,-0.914,-0.359
'0:00.970',0.589,-1.167,-1.756,0.288,1.173,-1.461,0.262,0.297,0.443,0.676,0.855,0.629,0.556,-0.917,-0.357
'0:00.971',0.592,-1.167,-1.759,0.287,1.176,-1.463,0.261,0.296,0.439,0.673,0.855,0.629,0.557,-0.916,-0.358
'0:00.972',0.591,-1.167,-1.758,0.288,1.175,-1.462,0.259,0.291,0.435,0.671,0.854,0.63,0.558,-0.913,-0.357
'0:00.973',0.585,-1.167,-1.753,0.291,1.169,-1.46,0.26,0.286,0.43,0.67,0.856,0.629,0.554,-0.913,-0.358
'0:00.974',0.58,-1.169,-1.75,0.294,1.165,-1.46,0.259,0.282,0.426,0.67,0.858,0.629,0.553,-0.914,-0.357
'0:00.975',0.584,-1.167,-1.75,0.291,1.167,-1.458,0.254,0.274,0.42,0.666,0.857,0.628,0.554,-0.915,-0.354
'0:00.976',0.592,-1.159,-1.752,0.283,1.171,-1.455,0.253,0.268,0.413,0.663,0.856,0.63,0.554,-0.912,-0.353
'0:00.977',0.586,-1.16,-1.746,0.286,1.167,-1.453,0.254,0.263,0.406,0.659,0.854,0.63,0.552,-0.909,-0.351
'0:00.978',0.581,-1.163,-1.744,0.29,1.163,-1.453,0.249,0.252,0.396,0.65,0.849,0.628,0.547,-0.91,-0.346
'0:00.979',0.579,-1.163,-1.742,0.292,1.161,-1.452,0.246,0.241,0.387,0.643,0.847,0.628,0.547,-0.909,-0.343
'0:00.980',0.574,-1.165,-1.739,0.295,1.157,-1.452,0.246,0.234,0.38,0.632,0.845,0.627,0.543,-0.908,-0.339
'0:00.981',0.569,-1.161,-1.731,0.295,1.15,-1.446,0.241,0.22,0.363,0.62,0.838,0.624,0.537,-0.911,-0.338
'0:00.982',0.569,-1.159,-1.728,0.295,1.149,-1.444,0.236,0.207,0.351,0.611,0.833,0.623,0.534,-0.913,-0.335
'0:00.983',0.565,-1.165,-1.73,0.299,1.148,-1.448,0.237,0.2,0.344,0.605,0.827,0.622,0.531,-0.912,-0.326
'0:00.984',0.56,-1.165,-1.726,0.302,1.143,-1.446,0.234,0.188,0.332,0.594,0.822,0.621,0.526,-0.912,-0.322
'0:00.985',0.554,-1.164,-1.719,0.304,1.137,-1.442,0.231,0.175,0.319,0.584,0.819,0.622,0.524,-0.911,-0.319
'0:00.986',0.547,-1.166,-1.714,0.308,1.131,-1.44,0.229,0.161,0.304,0.571,0.813,0.619,0.517,-0.91,-0.314
'0:00.987',0.545,-1.167,-1.713,0.311,1.129,-1.44,0.226,0.146,0.289,0.559,0.806,0.617,0.514,-0.912,-0.308
'0:00.988',0.541,-1.168,-1.71,0.313,1.126,-1.438,0.221,0.133,0.276,0.547,0.802,0.618,0.513,-0.914,-0.302
'0:00.989',0.539,-1.169,-1.709,0.315,1.125,-1.439,0.215,0.119,0.261,0.536,0.799,0.621,0.514,-0.915,-0.296
'0:00.990',0.534,-1.174,-1.71,0.32,1.122,-1.442,0.21,0.103,0.245,0.524,0.797,0.623,0.513,-0.916,-0.288
'0:00.991',0.529,-1.175,-1.704,0.323,1.117,-1.44,0.209,0.089,0.233,0.513,0.795,0.623,0.508,-0.914,-0.285
'0:00.992',0.525,-1.177,-1.702,0.326,1.113,-1.44,0.207,0.076,0.218,0.502,0.793,0.618,0.502,-0.911,-0.283
'0:00.993',0.524,-1.177,-1.7,0.326,1.113,-1.438,0.204,0.059,0.203,0.489,0.787,0.614,0.499,-0.912,-0.275
'0:00.994',0.523,-1.177,-1.701,0.327,1.113,-1.439,0.199,0.045,0.189,0.475,0.78,0.611,0.495,-0.912,-0.268
'0:00.995',0.515,-1.185,-1.7,0.335,1.107,-1.442,0.193,0.027,0.17,0.459,0.774,0.608,0.489,-0.915,-0.26
'0:00.996',0.512,-1.188,-1.7,0.338,1.107,-1.444,0.187,0.011,0.153,0.445,0.77,0.606,0.486,-0.921,-0.253
'0:00.997',0.51,-1.19,-1.701,0.34,1.106,-1.446,0.188,0.002,0.143,0.438,0.771,0.607,0.484,-0.92,-0.249
'0:00.998',0.507,-1.192,-1.699,0.343,1.103,-1.445,0.184,-0.011,0.131,0.429,0.771,0.61,0.483,-0.923,-0.243
'0:00.999',0.505,-1.192,-1.698,0.343,1.102,-1.446,0.179,-0.026,0.117,0.414,0.763,0.605,0.477,-0.925,-0.237
'0:01.000',0.496,-1.194,-1.69,0.348,1.093,-1.442,0.181,-0.038,0.103,0.404,0.757,0.602,0.471,-0.924,-0.234
'0:01.001',0.489,-1.196,-1.685,0.353,1.087,-1.44,0.175,-0.054,0.086,0.392,0.752,0.602,0.469,-0.923,-0.227
'0:01.002',0.486,-1.202,-1.688,0.357,1.087,-1.444,0.17,-0.07,0.071,0.379,0.747,0.601,0.467,-0.93,-0.22
'0:01.003',0.481,-1.206,-1.688,0.362,1.085,-1.447,0.167,-0.083,0.057,0.366,0.743,0.6,0.464,-0.931,-0.214
'0:01.004',0.477,-1.211,-1.688,0.366,1.083,-1.45,0.164,-0.095,0.043,0.354,0.738,0.598,0.46,-0.928,-0.208
'0:01.005',0.48,-1.212,-1.692,0.365,1.085,-1.452,0.161,-0.111,0.032,0.345,0.735,0.599,0.458,-0.931,-0.203
'0:01.006',0.477,-1.214,-1.692,0.368,1.085,-1.453,0.156,-0.122,0.018,0.332,0.729,0.597,0.454,-0.934,-0.197
'0:01.007',0.469,-1.221,-1.69,0.376,1.079,-1.455,0.154,-0.132,0.005,0.319,0.721,0.594,0.448,-0.941,-0.191
'0:01.008',0.462,-1.227,-1.688,0.383,1.075,-1.458,0.15,-0.146,-0.007,0.307,0.717,0.59,0.441,-0.946,-0.185
'0:01.009',0.459,-1.23,-1.688,0.386,1.073,-1.458,0.146,-0.159,-0.021,0.294,0.711,0.586,0.436,-0.944,-0.179
'0:01.010',0.458,-1.23,-1.688,0.386,1.073,-1.458,0.144,-0.169,-0.03,0.286,0.706,0.585,0.437,-0.943,-0.174
'0:01.011',0.451,-1.234,-1.686,0.392,1.069,-1.46,0.141,-0.181,-0.044,0.275,0.7,0.584,0.433,-0.944,-0.17
'0:01.012',0.448,-1.236,-1.685,0.394,1.066,-1.46,0.139,-0.194,-0.057,0.263,0.692,0.581,0.428,-0.945,-0.166
'0:01.013',0.444,-1.239,-1.683,0.398,1.064,-1.461,0.138,-0.203,-0.069,0.249,0.682,0.574,0.422,-0.949,-0.161
'0:01.014',0.435,-1.242,-1.678,0.404,1.057,-1.46,0.135,-0.215,-0.081,0.237,0.673,0.568,0.416,-0.953,-0.156
'0:01.015',0.433,-1.244,-1.677,0.406,1.055,-1.46,0.133,-0.225,-0.089,0.23,0.668,0.567,0.413,-0.953,-0.151
'0:01.016',0.432,-1.245,-1.677,0.406,1.054,-1.46,0.132,-0.231,-0.098,0.22,0.663,0.567,0.41,-0.95,-0.148
'0:01.017',0.425,-1.248,-1.673,0.411,1.05,-1.461,0.127,-0.244,-0.108,0.208,0.656,0.566,0.406,-0.951,-0.143
'0:01.018',0.425,-1.25,-1.675,0.412,1.05,-1.462,0.122,-0.255,-0.12,0.2,0.649,0.561,0.403,-0.951,-0.138
'0:01.019',0.424,-1.252,-1.675,0.413,1.05,-1.464,0.122,-0.258,-0.127,0.193,0.644,0.558,0.4,-0.953,-0.135
'0:01.020',0.418,-1.257,-1.675,0.419,1.047,-1.466,0.119,-0.271,-0.138,0.181,0.639,0.555,0.395,-0.961,-0.13
'0:01.021',0.42,-1.26,-1.68,0.419,1.05,-1.47,0.119,-0.277,-0.144,0.173,0.634,0.554,0.393,-0.963,-0.126
'0:01.022',0.416,-1.267,-1.683,0.425,1.05,-1.475,0.122,-0.278,-0.147,0.169,0.632,0.554,0.389,-0.965,-0.122
'0:01.023',0.412,-1.269,-1.681,0.428,1.047,-1.475,0.12,-0.287,-0.155,0.16,0.629,0.553,0.385,-0.969,-0.117
'0:01.024',0.417,-1.258,-1.675,0.42,1.046,-1.467,0.117,-0.295,-0.165,0.151,0.625,0.552,0.384,-0.963,-0.115
'0:01.025',0.416,-1.258,-1.675,0.421,1.046,-1.466,0.115,-0.302,-0.172,0.143,0.622,0.55,0.382,-0.961,-0.112
'0:01.026',0.411,-1.268,-1.68,0.428,1.046,-1.474,0.113,-0.308,-0.176,0.14,0.62,0.55,0.38,-0.97,-0.11
'0:01.027',0.407,-1.274,-1.681,0.433,1.044,-1.478,0.113,-0.313,-0.182,0.134,0.619,0.55,0.381,-0.974,-0.106
'0:01.028',0.404,-1.276,-1.679,0.435,1.042,-1.478,0.113,-0.317,-0.185,0.13,0.618,0.55,0.379,-0.973,-0.103
'0:01.029',0.402,-1.278,-1.68,0.438,1.042,-1.479,0.11,-0.322,-0.191,0.126,0.614,0.547,0.376,-0.977,-0.102
'0:01.030',0.401,-1.282,-1.683,0.441,1.042,-1.482,0.105,-0.329,-0.199,0.117,0.61,0.543,0.373,-0.979,-0.099
'0:01.031',0.401,-1.284,-1.685,0.441,1.042,-1.484,0.104,-0.333,-0.203,0.114,0.608,0.542,0.372,-0.977,-0.098
'0:01.032',0.401,-1.283,-1.684,0.441,1.042,-1.484,0.106,-0.334,-0.204,0.111,0.606,0.541,0.372,-0.978,-0.097
'0:01.033',0.402,-1.282,-1.683,0.44,1.042,-1.482,0.106,-0.338,-0.207,0.108,0.607,0.542,0.372,-0.978,-0.093
'0:01.034',0.399,-1.286,-1.685,0.444,1.042,-1.486,0.105,-0.34,-0.211,0.106,0.606,0.541,0.37,-0.979,-0.093
'0:01.035',0.396,-1.291,-1.687,0.447,1.042,-1.488,0.106,-0.342,-0.213,0.103,0.604,0.539,0.368,-0.981,-0.094
'0:01.036',0.396,-1.29,-1.687,0.447,1.042,-1.488,0.104,-0.346,-0.217,0.101,0.603,0.538,0.366,-0.985,-0.091
'0:01.037',0.397,-1.291,-1.688,0.447,1.042,-1.489,0.102,-0.35,-0.222,0.097,0.603,0.536,0.364,-0.987,-0.09
'0:01.038',0.399,-1.292,-1.69,0.447,1.044,-1.49,0.107,-0.35,-0.221,0.095,0.603,0.538,0.364,-0.985,-0.09
'0:01.039',0.398,-1.294,-1.692,0.448,1.046,-1.493,0.103,-0.352,-0.223,0.092,0.602,0.539,0.364,-0.986,-0.088
'0:01.040',0.394,-1.298,-1.693,0.452,1.044,-1.496,0.102,-0.354,-0.225,0.089,0.6,0.538,0.362,-0.989,-0.087
'0:01.041',0.394,-1.3,-1.694,0.453,1.044,-1.496,0.104,-0.356,-0.227,0.086,0.601,0.539,0.359,-0.992,-0.088
'0:01.042',0.397,-1.298,-1.696,0.45,1.046,-1.496,0.104,-0.357,-0.229,0.084,0.601,0.539,0.36,-0.994,-0.086
'0:01.043',0.398,-1.298,-1.696,0.45,1.046,-1.496,0.103,-0.358,-0.23,0.084,0.6,0.538,0.363,-0.994,-0.084
'0:01.044',0.399,-1.3,-1.699,0.451,1.048,-1.5,0.102,-0.359,-0.23,0.084,0.599,0.537,0.362,-0.996,-0.083
'0:01.045',0.401,-1.302,-1.703,0.45,1.052,-1.502,0.102,-0.359,-0.229,0.085,0.597,0.537,0.36,-0.996,-0.083
'0:01.046',0.401,-1.301,-1.702,0.45,1.052,-1.501,0.102,-0.359,-0.228,0.083,0.596,0.536,0.359,-0.994,-0.084
'0:01.047',0.398,-1.301,-1.698,0.452,1.048,-1.499,0.104,-0.359,-0.23,0.081,0.594,0.532,0.357,-0.997,-0.085
'0:01.048',0.398,-1.298,-1.696,0.45,1.047,-1.498,0.104,-0.36,-0.23,0.081,0.594,0.532,0.357,-0.996,-0.085
'0:01.049',0.399,-1.3,-1.698,0.45,1.048,-1.498,0.102,-0.36,-0.231,0.077,0.591,0.53,0.358,-0.998,-0.083
'0:01.050',0.395,-1.298,-1.693,0.452,1.044,-1.496,0.103,-0.36,-0.231,0.076,0.589,0.534,0.358,-0.995,-0.082
'0:01.051',0.395,-1.296,-1.691,0.451,1.043,-1.494,0.102,-0.361,-0.231,0.074,0.588,0.539,0.361,-0.991,-0.08
'0:01.052',0.399,-1.299,-1.698,0.45,1.048,-1.498,0.101,-0.361,-0.233,0.073,0.583,0.535,0.359,-0.999,-0.08
'0:01.053',0.395,-1.303,-1.698,0.454,1.046,-1.5,0.1,-0.364,-0.234,0.071,0.583,0.533,0.357,-0.997,-0.081
'0:01.054',0.39,-1.306,-1.696,0.458,1.043,-1.5,0.099,-0.366,-0.235,0.07,0.583,0.533,0.355,-0.997,-0.081
'0:01.055',0.388,-1.307,-1.695,0.46,1.042,-1.5,0.102,-0.362,-0.234,0.071,0.584,0.533,0.354,-0.998,-0.082
'0:01.056',0.39,-1.303,-1.694,0.457,1.042,-1.498,0.101,-0.364,-0.234,0.07,0.583,0.533,0.356,-0.996,-0.08
'0:01.057',0.391,-1.302,-1.692,0.455,1.042,-1.496,0.1,-0.365,-0.235,0.069,0.582,0.529,0.352,-0.997,-0.081
'0:01.058',0.387,-1.302,-1.69,0.458,1.038,-1.496,0.101,-0.364,-0.235,0.068,0.581,0.529,0.352,-0.998,-0.082
'0:01.059',0.385,-1.302,-1.686,0.459,1.036,-1.494,0.101,-0.365,-0.236,0.067,0.579,0.527,0.351,-0.998,-0.081
'0:01.060',0.385,-1.302,-1.685,0.459,1.036,-1.494,0.1,-0.364,-0.236,0.066,0.581,0.527,0.35,-0.997,-0.081
'0:01.061',0.387,-1.302,-1.688,0.457,1.038,-1.495,0.101,-0.364,-0.235,0.067,0.582,0.53,0.353,-0.997,-0.08
'0:01.062',0.386,-1.302,-1.688,0.458,1.037,-1.496,0.101,-0.364,-0.234,0.068,0.581,0.529,0.353,-0.996,-0.08
'0:01.063',0.385,-1.304,-1.69,0.46,1.038,-1.497,0.101,-0.363,-0.234,0.069,0.58,0.53,0.354,-0.999,-0.081
'0:01.064',0.383,-1.306,-1.688,0.462,1.036,-1.497,0.102,-0.362,-0.233,0.069,0.579,0.528,0.351,-1,-0.082
'0:01.065',0.385,-1.303,-1.688,0.459,1.036,-1.496,0.103,-0.362,-0.233,0.069,0.579,0.526,0.348,-0.999,-0.083
'0:01.066',0.386,-1.302,-1.688,0.458,1.037,-1.494,0.103,-0.362,-0.232,0.07,0.579,0.526,0.349,-0.998,-0.082
'0:01.067',0.385,-1.306,-1.69,0.461,1.038,-1.498,0.102,-0.363,-0.233,0.069,0.578,0.524,0.35,-1.001,-0.082
'0:01.068',0.389,-1.305,-1.694,0.458,1.041,-1.499,0.1,-0.363,-0.233,0.069,0.576,0.524,0.352,-1,-0.081
'0:01.069',0.39,-1.302,-1.692,0.456,1.041,-1.496,0.101,-0.361,-0.232,0.07,0.578,0.525,0.352,-0.994,-0.083
'0:01.070',0.39,-1.304,-1.692,0.457,1.041,-1.498,0.102,-0.362,-0.233,0.07,0.58,0.525,0.353,-0.995,-0.082
'0:01.071',0.389,-1.304,-1.693,0.457,1.041,-1.498,0.102,-0.362,-0.231,0.071,0.581,0.525,0.353,-0.998,-0.082
'0:01.072',0.384,-1.308,-1.692,0.462,1.038,-1.5,0.101,-0.364,-0.233,0.069,0.577,0.525,0.35,-1,-0.083
'0:01.073',0.381,-1.308,-1.69,0.464,1.035,-1.498,0.101,-0.364,-0.234,0.067,0.574,0.523,0.348,-1,-0.082
'0:01.074',0.385,-1.307,-1.692,0.461,1.038,-1.499,0.099,-0.363,-0.234,0.065,0.572,0.521,0.347,-1.002,-0.081
'0:01.075',0.387,-1.305,-1.692,0.459,1.039,-1.498,0.097,-0.368,-0.236,0.067,0.571,0.52,0.346,-0.998,-0.081
'0:01.076',0.383,-1.306,-1.689,0.462,1.036,-1.498,0.101,-0.363,-0.232,0.07,0.574,0.522,0.345,-0.997,-0.083
'0:01.077',0.381,-1.31,-1.69,0.465,1.036,-1.5,0.103,-0.36,-0.231,0.07,0.573,0.521,0.344,-1,-0.085
'0:01.078',0.384,-1.308,-1.692,0.462,1.038,-1.5,0.099,-0.363,-0.233,0.07,0.572,0.519,0.344,-0.999,-0.084
'0:01.079',0.384,-1.306,-1.69,0.461,1.037,-1.498,0.099,-0.362,-0.233,0.071,0.571,0.518,0.345,-0.995,-0.084
'0:01.080',0.384,-1.306,-1.69,0.461,1.037,-1.498,0.099,-0.363,-0.233,0.072,0.57,0.519,0.345,-0.995,-0.084
'0:01.081',0.392,-1.302,-1.694,0.456,1.042,-1.498,0.096,-0.364,-0.234,0.071,0.573,0.52,0.347,-0.996,-0.083
'0:01.082',0.394,-1.302,-1.695,0.454,1.044,-1.498,0.099,-0.361,-0.232,0.075,0.575,0.52,0.348,-0.998,-0.085
'0:01.083',0.386,-1.306,-1.692,0.46,1.038,-1.498,0.102,-0.36,-0.231,0.075,0.573,0.519,0.347,-1,-0.087
'0:01.084',0.386,-1.304,-1.69,0.459,1.038,-1.496,0.102,-0.359,-0.231,0.075,0.573,0.52,0.349,-0.995,-0.086
'0:01.085',0.386,-1.302,-1.688,0.458,1.037,-1.495,0.099,-0.36,-0.231,0.076,0.572,0.519,0.346,-0.992,-0.085
'0:01.086',0.382,-1.304,-1.685,0.461,1.034,-1.494,0.099,-0.361,-0.232,0.075,0.571,0.517,0.346,-0.994,-0.082
'0:01.087',0.385,-1.3,-1.685,0.458,1.034,-1.492,0.104,-0.357,-0.229,0.079,0.573,0.518,0.348,-0.993,-0.083
'0:01.088',0.384,-1.3,-1.685,0.458,1.034,-1.492,0.104,-0.356,-0.228,0.08,0.573,0.52,0.346,-0.994,-0.085
'0:01.089',0.387,-1.298,-1.685,0.456,1.036,-1.492,0.105,-0.355,-0.226,0.082,0.576,0.523,0.349,-0.995,-0.084
'0:01.090',0.392,-1.294,-1.685,0.451,1.038,-1.49,0.103,-0.354,-0.226,0.084,0.577,0.525,0.351,-0.994,-0.083
'0:01.091',0.391,-1.294,-1.685,0.452,1.038,-1.489,0.105,-0.354,-0.225,0.086,0.579,0.527,0.352,-0.994,-0.084
'0:01.092',0.394,-1.294,-1.688,0.45,1.041,-1.49,0.107,-0.352,-0.223,0.087,0.58,0.527,0.354,-0.996,-0.084
'0:01.093',0.392,-1.296,-1.688,0.452,1.04,-1.492,0.104,-0.355,-0.226,0.085,0.581,0.527,0.354,-0.999,-0.083
'0:01.094',0.393,-1.297,-1.689,0.452,1.04,-1.492,0.104,-0.356,-0.226,0.084,0.582,0.528,0.354,-1,-0.084
'0:01.095',0.393,-1.296,-1.688,0.451,1.04,-1.492,0.105,-0.356,-0.227,0.083,0.581,0.53,0.355,-0.998,-0.084
'0:01.096',0.387,-1.298,-1.684,0.455,1.036,-1.49,0.106,-0.356,-0.227,0.085,0.582,0.531,0.355,-1,-0.084
'0:01.097',0.389,-1.3,-1.69,0.456,1.039,-1.494,0.104,-0.356,-0.229,0.081,0.58,0.529,0.355,-1.002,-0.083
'0:01.098',0.386,-1.303,-1.688,0.458,1.038,-1.496,0.105,-0.356,-0.228,0.081,0.58,0.53,0.355,-0.998,-0.084
'0:01.099',0.388,-1.299,-1.686,0.456,1.037,-1.492,0.107,-0.353,-0.225,0.085,0.583,0.533,0.357,-0.996,-0.085
'0:01.100',0.393,-1.296,-1.688,0.451,1.04,-1.492,0.105,-0.354,-0.226,0.085,0.584,0.536,0.36,-0.997,-0.083
'0:01.101',0.392,-1.296,-1.689,0.452,1.04,-1.492,0.105,-0.356,-0.227,0.085,0.583,0.534,0.357,-0.999,-0.083
'0:01.102',0.394,-1.294,-1.688,0.45,1.04,-1.49,0.106,-0.354,-0.226,0.086,0.583,0.534,0.357,-0.997,-0.085
'0:01.103',0.397,-1.29,-1.686,0.447,1.041,-1.488,0.108,-0.35,-0.222,0.086,0.584,0.536,0.358,-0.994,-0.086
'0:01.104',0.397,-1.291,-1.688,0.447,1.042,-1.489,0.105,-0.353,-0.225,0.085,0.581,0.533,0.356,-0.996,-0.085
'0:01.105',0.398,-1.293,-1.69,0.447,1.044,-1.492,0.104,-0.356,-0.227,0.085,0.578,0.532,0.356,-0.997,-0.084
'0:01.106',0.396,-1.294,-1.69,0.449,1.043,-1.492,0.104,-0.356,-0.227,0.085,0.579,0.532,0.355,-0.995,-0.085
'0:01.107',0.392,-1.296,-1.688,0.453,1.04,-1.492,0.104,-0.356,-0.226,0.085,0.578,0.529,0.353,-0.996,-0.085
'0:01.108',0.394,-1.298,-1.692,0.451,1.043,-1.494,0.104,-0.354,-0.224,0.087,0.581,0.53,0.355,-0.997,-0.086
'0:01.109',0.395,-1.298,-1.692,0.451,1.043,-1.494,0.103,-0.357,-0.227,0.087,0.583,0.529,0.356,-0.995,-0.088
'0:01.110',0.389,-1.3,-1.688,0.455,1.039,-1.494,0.102,-0.358,-0.23,0.084,0.581,0.526,0.354,-0.996,-0.086
'0:01.111',0.387,-1.302,-1.688,0.457,1.038,-1.494,0.102,-0.358,-0.229,0.084,0.581,0.526,0.354,-0.998,-0.086
'0:01.112',0.39,-1.298,-1.687,0.454,1.038,-1.492,0.101,-0.358,-0.23,0.083,0.582,0.527,0.354,-0.993,-0.086
'0:01.113',0.389,-1.3,-1.688,0.455,1.038,-1.494,0.1,-0.361,-0.234,0.081,0.581,0.524,0.353,-0.993,-0.085
'0:01.114',0.389,-1.3,-1.69,0.456,1.04,-1.494,0.1,-0.363,-0.233,0.081,0.581,0.522,0.351,-0.993,-0.086
'0:01.115',0.391,-1.299,-1.69,0.454,1.04,-1.494,0.1,-0.362,-0.233,0.081,0.582,0.523,0.353,-0.992,-0.087
'0:01.116',0.388,-1.303,-1.691,0.458,1.04,-1.497,0.1,-0.361,-0.232,0.083,0.585,0.524,0.353,-0.999,-0.086
'0:01.117',0.388,-1.3,-1.688,0.456,1.038,-1.494,0.1,-0.358,-0.228,0.085,0.587,0.526,0.354,-0.998,-0.086
'0:01.118',0.392,-1.294,-1.685,0.451,1.039,-1.489,0.103,-0.357,-0.228,0.086,0.591,0.53,0.354,-0.996,-0.086
'0:01.119',0.398,-1.288,-1.686,0.445,1.042,-1.487,0.103,-0.357,-0.228,0.086,0.593,0.531,0.352,-0.997,-0.085
'0:01.120',0.398,-1.288,-1.686,0.445,1.042,-1.487,0.102,-0.358,-0.228,0.086,0.591,0.529,0.353,-0.995,-0.085
'0:01.121',0.396,-1.29,-1.685,0.447,1.04,-1.487,0.101,-0.36,-0.229,0.086,0.589,0.529,0.353,-0.994,-0.086
'0:01.122',0.396,-1.292,-1.687,0.448,1.041,-1.489,0.1,-0.361,-0.231,0.085,0.589,0.529,0.354,-0.994,-0.086
'0:01.123',0.399,-1.293,-1.692,0.447,1.045,-1.492,0.102,-0.36,-0.231,0.084,0.587,0.531,0.355,-0.997,-0.085
'0:01.124',0.396,-1.294,-1.69,0.449,1.043,-1.492,0.099,-0.363,-0.234,0.081,0.581,0.527,0.352,-0.998,-0.084
'0:01.125',0.391,-1.295,-1.686,0.452,1.038,-1.49,0.1,-0.362,-0.233,0.081,0.58,0.526,0.35,-0.997,-0.085
'0:01.126',0.392,-1.293,-1.685,0.451,1.038,-1.488,0.101,-0.361,-0.232,0.081,0.581,0.527,0.35,-0.993,-0.086
'0:01.127',0.39,-1.294,-1.684,0.452,1.037,-1.488,0.101,-0.362,-0.234,0.079,0.579,0.526,0.35,-0.993,-0.086
'0:01.128',0.388,-1.296,-1.683,0.454,1.036,-1.489,0.102,-0.362,-0.233,0.081,0.578,0.525,0.349,-0.996,-0.085
'0:01.129',0.389,-1.298,-1.688,0.455,1.038,-1.493,0.099,-0.366,-0.237,0.077,0.575,0.521,0.347,-0.997,-0.084
'0:01.130',0.389,-1.302,-1.69,0.457,1.04,-1.496,0.098,-0.369,-0.24,0.07,0.571,0.521,0.347,-1,-0.081
