'Elapsed time','i','ii','iii','avr','avl','avf','v1','v2','v3','v4','v5','v6','vx','vy','vz'
'hh:mm:ss.mmm','mV','mV','mV','mV','mV','mV','mV','mV','mV','mV','mV','mV','mV','mV','mV'
'0:00.000',0.88,0.204,-0.675,-0.542,0.777,-0.235,-0.92,0.589,-0.818,0.07,-0.629,0.224,-0.009,0.043,0.234
'0:00.001',0.88,0.203,-0.678,-0.541,0.779,-0.238,-0.921,0.588,-0.819,0.068,-0.632,0.221,-0.007,0.043,0.235
'0:00.002',0.875,0.2,-0.675,-0.538,0.775,-0.238,-0.919,0.588,-0.819,0.067,-0.632,0.22,-0.01,0.048,0.236
'0:00.003',0.882,0.203,-0.679,-0.543,0.78,-0.238,-0.921,0.589,-0.82,0.068,-0.631,0.221,-0.007,0.048,0.235
'0:00.004',0.882,0.203,-0.679,-0.543,0.78,-0.238,-0.922,0.587,-0.82,0.067,-0.632,0.221,-0.007,0.048,0.236
'0:00.005',0.88,0.202,-0.677,-0.541,0.778,-0.237,-0.922,0.587,-0.821,0.067,-0.635,0.218,-0.011,0.049,0.236
'0:00.006',0.882,0.203,-0.679,-0.542,0.781,-0.238,-0.923,0.589,-0.821,0.067,-0.635,0.219,-0.009,0.047,0.236
'0:00.007',0.885,0.205,-0.68,-0.545,0.783,-0.238,-0.924,0.589,-0.819,0.068,-0.633,0.22,-0.007,0.045,0.235
'0:00.008',0.883,0.207,-0.676,-0.546,0.779,-0.234,-0.923,0.589,-0.82,0.068,-0.634,0.22,-0.007,0.045,0.235
'0:00.009',0.883,0.207,-0.675,-0.545,0.778,-0.234,-0.923,0.59,-0.82,0.068,-0.634,0.221,-0.009,0.046,0.236
'0:00.010',0.884,0.208,-0.675,-0.547,0.779,-0.234,-0.923,0.589,-0.82,0.066,-0.636,0.22,-0.009,0.047,0.236
'0:00.011',0.887,0.212,-0.675,-0.55,0.781,-0.231,-0.924,0.589,-0.822,0.066,-0.635,0.22,-0.009,0.05,0.237
'0:00.012',0.887,0.214,-0.673,-0.551,0.78,-0.23,-0.924,0.588,-0.821,0.065,-0.635,0.22,-0.009,0.05,0.236
'0:00.013',0.882,0.211,-0.671,-0.547,0.777,-0.23,-0.922,0.588,-0.823,0.062,-0.638,0.218,-0.01,0.046,0.236
'0:00.014',0.88,0.209,-0.671,-0.545,0.776,-0.232,-0.922,0.589,-0.823,0.061,-0.638,0.217,-0.011,0.048,0.236
'0:00.015',0.88,0.208,-0.671,-0.544,0.775,-0.232,-0.922,0.59,-0.823,0.061,-0.638,0.217,-0.009,0.05,0.236
'0:00.016',0.886,0.21,-0.676,-0.549,0.781,-0.233,-0.923,0.589,-0.824,0.063,-0.638,0.221,-0.006,0.05,0.237
'0:00.017',0.888,0.209,-0.678,-0.549,0.783,-0.234,-0.922,0.59,-0.823,0.064,-0.638,0.221,-0.005,0.05,0.237
'0:00.018',0.882,0.208,-0.673,-0.545,0.777,-0.233,-0.921,0.589,-0.823,0.066,-0.639,0.217,-0.009,0.047,0.237
'0:00.019',0.88,0.208,-0.671,-0.544,0.776,-0.232,-0.922,0.586,-0.825,0.063,-0.64,0.218,-0.009,0.047,0.236
'0:00.020',0.878,0.207,-0.67,-0.543,0.774,-0.232,-0.92,0.587,-0.824,0.065,-0.637,0.22,-0.007,0.048,0.237
'0:00.021',0.877,0.208,-0.669,-0.543,0.773,-0.231,-0.92,0.588,-0.824,0.067,-0.636,0.221,-0.006,0.052,0.236
'0:00.022',0.879,0.206,-0.672,-0.543,0.775,-0.233,-0.921,0.587,-0.824,0.067,-0.636,0.22,-0.006,0.054,0.237
'0:00.023',0.878,0.207,-0.671,-0.543,0.774,-0.233,-0.921,0.587,-0.824,0.07,-0.633,0.22,-0.005,0.051,0.235
'0:00.024',0.879,0.208,-0.67,-0.544,0.774,-0.231,-0.921,0.587,-0.823,0.07,-0.633,0.219,-0.004,0.051,0.235
'0:00.025',0.88,0.208,-0.672,-0.544,0.776,-0.232,-0.922,0.587,-0.823,0.069,-0.634,0.221,-0.003,0.051,0.237
'0:00.026',0.883,0.21,-0.673,-0.546,0.778,-0.232,-0.923,0.586,-0.826,0.067,-0.634,0.222,-0.003,0.051,0.238
'0:00.027',0.88,0.209,-0.671,-0.545,0.776,-0.232,-0.923,0.587,-0.825,0.067,-0.636,0.222,-0.004,0.051,0.238
'0:00.028',0.878,0.208,-0.67,-0.543,0.774,-0.232,-0.922,0.587,-0.825,0.066,-0.635,0.222,-0.004,0.053,0.237
'0:00.029',0.881,0.206,-0.675,-0.544,0.778,-0.235,-0.921,0.587,-0.824,0.068,-0.632,0.225,-0.001,0.052,0.238
'0:00.030',0.875,0.201,-0.675,-0.538,0.775,-0.237,-0.919,0.588,-0.822,0.068,-0.632,0.225,-0.003,0.045,0.238
'0:00.031',0.871,0.197,-0.674,-0.534,0.772,-0.238,-0.918,0.588,-0.823,0.067,-0.634,0.224,-0.004,0.042,0.238
'0:00.032',0.874,0.199,-0.675,-0.536,0.774,-0.238,-0.919,0.589,-0.82,0.067,-0.632,0.227,0,0.043,0.239
'0:00.033',0.875,0.2,-0.675,-0.537,0.775,-0.238,-0.92,0.589,-0.821,0.068,-0.631,0.227,-0.002,0.043,0.238
'0:00.034',0.875,0.2,-0.676,-0.537,0.775,-0.238,-0.923,0.588,-0.822,0.068,-0.629,0.225,-0.002,0.043,0.238
'0:00.035',0.876,0.201,-0.675,-0.539,0.776,-0.237,-0.923,0.588,-0.821,0.069,-0.629,0.225,-0.002,0.045,0.238
'0:00.036',0.877,0.202,-0.675,-0.539,0.776,-0.237,-0.923,0.587,-0.821,0.069,-0.629,0.225,-0.004,0.045,0.237
'0:00.037',0.875,0.201,-0.674,-0.537,0.774,-0.237,-0.922,0.588,-0.82,0.069,-0.63,0.227,-0.004,0.044,0.238
'0:00.038',0.87,0.197,-0.673,-0.533,0.771,-0.238,-0.92,0.588,-0.822,0.067,-0.632,0.224,-0.006,0.044,0.237
'0:00.039',0.873,0.199,-0.674,-0.536,0.773,-0.238,-0.921,0.587,-0.822,0.065,-0.632,0.224,-0.006,0.048,0.237
'0:00.040',0.878,0.202,-0.677,-0.54,0.777,-0.238,-0.924,0.588,-0.822,0.065,-0.631,0.225,-0.004,0.045,0.237
'0:00.041',0.878,0.201,-0.677,-0.54,0.778,-0.238,-0.925,0.587,-0.824,0.064,-0.632,0.224,-0.004,0.044,0.239
'0:00.042',0.88,0.204,-0.676,-0.542,0.777,-0.236,-0.926,0.586,-0.825,0.062,-0.633,0.224,-0.004,0.049,0.239
'0:00.043',0.878,0.204,-0.674,-0.541,0.776,-0.235,-0.925,0.587,-0.826,0.06,-0.635,0.224,-0.006,0.049,0.238
'0:00.044',0.88,0.204,-0.676,-0.542,0.778,-0.236,-0.925,0.588,-0.825,0.059,-0.635,0.224,-0.005,0.049,0.239
'0:00.045',0.879,0.205,-0.674,-0.542,0.777,-0.234,-0.924,0.587,-0.826,0.06,-0.634,0.222,-0.007,0.048,0.239
'0:00.046',0.872,0.202,-0.67,-0.537,0.77,-0.234,-0.924,0.586,-0.826,0.059,-0.634,0.222,-0.008,0.045,0.239
'0:00.047',0.873,0.201,-0.671,-0.537,0.772,-0.235,-0.924,0.587,-0.826,0.061,-0.634,0.222,-0.007,0.045,0.238
'0:00.048',0.875,0.201,-0.674,-0.538,0.775,-0.236,-0.921,0.588,-0.824,0.065,-0.632,0.223,-0.007,0.043,0.235
'0:00.049',0.874,0.201,-0.674,-0.537,0.773,-0.237,-0.921,0.588,-0.823,0.065,-0.632,0.223,-0.007,0.045,0.236
'0:00.050',0.874,0.202,-0.671,-0.538,0.772,-0.235,-0.92,0.589,-0.823,0.066,-0.631,0.223,-0.007,0.046,0.235
'0:00.051',0.873,0.2,-0.673,-0.536,0.773,-0.236,-0.92,0.588,-0.823,0.066,-0.631,0.223,-0.008,0.044,0.235
'0:00.052',0.874,0.198,-0.676,-0.536,0.775,-0.239,-0.919,0.589,-0.822,0.066,-0.63,0.224,-0.007,0.041,0.235
'0:00.053',0.874,0.198,-0.676,-0.536,0.775,-0.239,-0.917,0.591,-0.821,0.068,-0.63,0.226,-0.006,0.043,0.237
'0:00.054',0.874,0.196,-0.677,-0.535,0.775,-0.241,-0.918,0.591,-0.822,0.067,-0.63,0.226,-0.006,0.043,0.238
'0:00.055',0.874,0.198,-0.676,-0.536,0.774,-0.239,-0.917,0.59,-0.821,0.067,-0.628,0.224,-0.008,0.044,0.237
'0:00.056',0.875,0.2,-0.675,-0.537,0.774,-0.238,-0.916,0.592,-0.819,0.069,-0.627,0.226,-0.008,0.046,0.235
'0:00.057',0.876,0.2,-0.676,-0.538,0.776,-0.238,-0.916,0.593,-0.819,0.069,-0.627,0.226,-0.007,0.044,0.235
'0:00.058',0.875,0.199,-0.676,-0.536,0.775,-0.238,-0.917,0.59,-0.82,0.068,-0.629,0.225,-0.008,0.045,0.235
'0:00.059',0.872,0.194,-0.677,-0.533,0.774,-0.242,-0.918,0.59,-0.82,0.068,-0.63,0.226,-0.006,0.045,0.235
'0:00.060',0.871,0.194,-0.677,-0.532,0.774,-0.242,-0.917,0.588,-0.821,0.066,-0.632,0.224,-0.009,0.046,0.234
'0:00.061',0.876,0.195,-0.681,-0.535,0.778,-0.243,-0.918,0.587,-0.822,0.065,-0.634,0.222,-0.009,0.042,0.236
'0:00.062',0.874,0.191,-0.683,-0.532,0.778,-0.246,-0.918,0.588,-0.822,0.064,-0.636,0.218,-0.009,0.037,0.237
'0:00.063',0.868,0.189,-0.679,-0.529,0.773,-0.245,-0.918,0.585,-0.825,0.061,-0.638,0.216,-0.015,0.043,0.235
'0:00.064',0.869,0.19,-0.679,-0.529,0.774,-0.245,-0.918,0.586,-0.825,0.06,-0.64,0.218,-0.013,0.045,0.236
'0:00.065',0.874,0.193,-0.681,-0.533,0.777,-0.244,-0.917,0.588,-0.825,0.06,-0.641,0.217,-0.013,0.042,0.237
'0:00.066',0.877,0.195,-0.682,-0.536,0.779,-0.243,-0.919,0.586,-0.825,0.059,-0.642,0.215,-0.013,0.041,0.237
'0:00.067',0.875,0.194,-0.681,-0.534,0.777,-0.244,-0.919,0.586,-0.825,0.058,-0.642,0.213,-0.013,0.043,0.236
'0:00.068',0.875,0.194,-0.68,-0.534,0.777,-0.243,-0.92,0.586,-0.826,0.059,-0.641,0.216,-0.012,0.045,0.237
'0:00.069',0.874,0.195,-0.679,-0.534,0.776,-0.242,-0.92,0.586,-0.825,0.06,-0.639,0.218,-0.012,0.046,0.237
'0:00.070',0.871,0.193,-0.679,-0.532,0.774,-0.243,-0.92,0.585,-0.827,0.059,-0.64,0.216,-0.013,0.044,0.237
'0:00.071',0.873,0.194,-0.679,-0.533,0.775,-0.242,-0.921,0.584,-0.828,0.058,-0.639,0.217,-0.011,0.045,0.237
'0:00.072',0.871,0.194,-0.677,-0.532,0.773,-0.242,-0.922,0.584,-0.827,0.059,-0.637,0.218,-0.009,0.045,0.237
'0:00.073',0.869,0.192,-0.676,-0.53,0.772,-0.242,-0.922,0.583,-0.828,0.058,-0.639,0.218,-0.009,0.044,0.239
'0:00.074',0.869,0.193,-0.675,-0.531,0.771,-0.241,-0.922,0.583,-0.828,0.059,-0.637,0.22,-0.007,0.045,0.239
'0:00.075',0.873,0.195,-0.677,-0.534,0.775,-0.241,-0.923,0.585,-0.826,0.059,-0.634,0.22,-0.006,0.046,0.24
'0:00.076',0.873,0.196,-0.677,-0.534,0.774,-0.241,-0.923,0.583,-0.827,0.059,-0.637,0.22,-0.006,0.046,0.24
'0:00.077',0.873,0.197,-0.676,-0.535,0.774,-0.24,-0.922,0.584,-0.827,0.058,-0.636,0.22,-0.007,0.045,0.238
'0:00.078',0.874,0.196,-0.678,-0.535,0.775,-0.241,-0.921,0.584,-0.827,0.058,-0.636,0.221,-0.007,0.045,0.237
'0:00.079',0.869,0.194,-0.676,-0.531,0.772,-0.241,-0.92,0.583,-0.827,0.058,-0.638,0.221,-0.008,0.046,0.236
'0:00.080',0.875,0.198,-0.678,-0.536,0.776,-0.24,-0.92,0.584,-0.827,0.059,-0.636,0.222,-0.005,0.045,0.238
'0:00.081',0.879,0.199,-0.679,-0.539,0.779,-0.24,-0.922,0.584,-0.826,0.059,-0.635,0.222,-0.003,0.045,0.239
'0:00.082',0.875,0.197,-0.677,-0.536,0.775,-0.24,-0.921,0.583,-0.827,0.058,-0.638,0.22,-0.005,0.048,0.241
'0:00.083',0.873,0.197,-0.676,-0.535,0.774,-0.24,-0.92,0.584,-0.826,0.059,-0.637,0.219,-0.006,0.045,0.239
'0:00.084',0.874,0.198,-0.676,-0.536,0.774,-0.239,-0.92,0.585,-0.824,0.062,-0.634,0.221,-0.005,0.048,0.236
'0:00.085',0.875,0.198,-0.677,-0.537,0.776,-0.239,-0.919,0.584,-0.825,0.062,-0.632,0.22,-0.005,0.05,0.236
'0:00.086',0.874,0.198,-0.676,-0.536,0.775,-0.239,-0.918,0.584,-0.826,0.061,-0.633,0.22,-0.006,0.046,0.236
'0:00.087',0.873,0.198,-0.675,-0.536,0.774,-0.238,-0.919,0.583,-0.826,0.062,-0.634,0.22,-0.007,0.048,0.236
'0:00.088',0.876,0.2,-0.677,-0.538,0.776,-0.239,-0.92,0.583,-0.826,0.063,-0.633,0.22,-0.006,0.045,0.237
'0:00.089',0.879,0.202,-0.677,-0.54,0.778,-0.238,-0.92,0.584,-0.825,0.064,-0.634,0.219,-0.007,0.048,0.236
'0:00.090',0.873,0.198,-0.675,-0.535,0.773,-0.239,-0.917,0.586,-0.821,0.065,-0.633,0.222,-0.007,0.051,0.236
'0:00.091',0.875,0.198,-0.677,-0.536,0.775,-0.239,-0.918,0.584,-0.821,0.066,-0.633,0.222,-0.006,0.05,0.237
'0:00.092',0.878,0.199,-0.679,-0.538,0.778,-0.24,-0.92,0.584,-0.822,0.067,-0.632,0.222,-0.006,0.051,0.237
'0:00.093',0.877,0.197,-0.68,-0.537,0.779,-0.242,-0.92,0.585,-0.822,0.066,-0.632,0.223,-0.006,0.046,0.238
'0:00.094',0.876,0.194,-0.683,-0.535,0.779,-0.244,-0.919,0.585,-0.821,0.067,-0.63,0.223,-0.007,0.044,0.235
'0:00.095',0.873,0.189,-0.683,-0.531,0.778,-0.247,-0.917,0.587,-0.818,0.068,-0.628,0.223,-0.009,0.042,0.235
'0:00.096',0.876,0.19,-0.687,-0.533,0.781,-0.248,-0.916,0.587,-0.817,0.069,-0.628,0.225,-0.005,0.04,0.237
'0:00.097',0.878,0.191,-0.688,-0.534,0.782,-0.248,-0.916,0.588,-0.818,0.07,-0.626,0.227,-0.004,0.041,0.235
'0:00.098',0.875,0.189,-0.686,-0.532,0.78,-0.249,-0.917,0.587,-0.819,0.069,-0.628,0.225,-0.007,0.041,0.235
'0:00.099',0.869,0.188,-0.681,-0.528,0.775,-0.247,-0.915,0.586,-0.819,0.066,-0.63,0.222,-0.009,0.043,0.235
'0:00.100',0.866,0.188,-0.678,-0.527,0.772,-0.245,-0.915,0.587,-0.82,0.065,-0.631,0.221,-0.011,0.044,0.235
'0:00.101',0.871,0.188,-0.682,-0.529,0.776,-0.247,-0.916,0.586,-0.819,0.064,-0.634,0.22,-0.011,0.04,0.237
'0:00.102',0.875,0.189,-0.687,-0.532,0.781,-0.249,-0.917,0.585,-0.819,0.064,-0.634,0.222,-0.009,0.036,0.239
'0:00.103',0.877,0.19,-0.686,-0.533,0.781,-0.248,-0.918,0.586,-0.819,0.064,-0.634,0.223,-0.006,0.043,0.238
'0:00.104',0.872,0.191,-0.68,-0.531,0.775,-0.244,-0.919,0.585,-0.821,0.062,-0.636,0.22,-0.009,0.049,0.237
'0:00.105',0.87,0.19,-0.68,-0.529,0.774,-0.245,-0.92,0.584,-0.821,0.06,-0.637,0.218,-0.009,0.045,0.239
'0:00.106',0.871,0.19,-0.68,-0.53,0.775,-0.245,-0.92,0.583,-0.823,0.058,-0.639,0.217,-0.011,0.042,0.239
'0:00.107',0.868,0.189,-0.679,-0.528,0.773,-0.245,-0.919,0.584,-0.822,0.059,-0.639,0.216,-0.013,0.041,0.237
'0:00.108',0.868,0.187,-0.68,-0.527,0.774,-0.247,-0.918,0.584,-0.822,0.059,-0.639,0.218,-0.012,0.04,0.237
'0:00.109',0.867,0.185,-0.681,-0.526,0.773,-0.247,-0.918,0.584,-0.823,0.057,-0.639,0.217,-0.013,0.041,0.238
'0:00.110',0.871,0.19,-0.682,-0.53,0.776,-0.246,-0.918,0.584,-0.822,0.057,-0.638,0.218,-0.013,0.04,0.238
'0:00.111',0.877,0.195,-0.682,-0.536,0.779,-0.244,-0.919,0.585,-0.82,0.058,-0.636,0.22,-0.011,0.042,0.239
'0:00.112',0.872,0.194,-0.679,-0.533,0.775,-0.243,-0.918,0.584,-0.821,0.057,-0.636,0.218,-0.013,0.044,0.239
'0:00.113',0.873,0.196,-0.677,-0.534,0.775,-0.241,-0.916,0.585,-0.82,0.058,-0.637,0.217,-0.013,0.045,0.239
'0:00.114',0.875,0.197,-0.678,-0.536,0.776,-0.24,-0.917,0.586,-0.819,0.06,-0.634,0.221,-0.011,0.046,0.239
'0:00.115',0.873,0.196,-0.678,-0.534,0.775,-0.241,-0.918,0.584,-0.819,0.061,-0.632,0.223,-0.009,0.05,0.238
'0:00.116',0.875,0.197,-0.679,-0.536,0.777,-0.241,-0.917,0.585,-0.817,0.064,-0.63,0.224,-0.008,0.049,0.237
'0:00.117',0.877,0.196,-0.681,-0.536,0.779,-0.243,-0.917,0.585,-0.817,0.062,-0.632,0.221,-0.009,0.043,0.238
'0:00.118',0.88,0.197,-0.684,-0.539,0.782,-0.243,-0.917,0.587,-0.816,0.063,-0.631,0.221,-0.009,0.043,0.238
'0:00.119',0.878,0.196,-0.682,-0.537,0.78,-0.243,-0.916,0.588,-0.816,0.063,-0.632,0.222,-0.01,0.043,0.238
'0:00.120',0.874,0.194,-0.68,-0.533,0.776,-0.243,-0.916,0.586,-0.819,0.062,-0.633,0.22,-0.011,0.041,0.238
'0:00.121',0.877,0.197,-0.68,-0.537,0.778,-0.242,-0.916,0.586,-0.817,0.065,-0.629,0.223,-0.009,0.043,0.237
'0:00.122',0.878,0.197,-0.682,-0.538,0.78,-0.242,-0.916,0.588,-0.815,0.068,-0.627,0.223,-0.008,0.044,0.235
'0:00.123',0.881,0.197,-0.684,-0.539,0.782,-0.243,-0.916,0.588,-0.814,0.068,-0.628,0.222,-0.007,0.043,0.235
'0:00.124',0.882,0.197,-0.685,-0.539,0.783,-0.244,-0.916,0.588,-0.816,0.065,-0.629,0.223,-0.006,0.043,0.236
'0:00.125',0.876,0.195,-0.681,-0.536,0.779,-0.243,-0.917,0.587,-0.818,0.064,-0.631,0.221,-0.009,0.041,0.236
'0:00.126',0.875,0.195,-0.68,-0.535,0.777,-0.242,-0.916,0.588,-0.816,0.065,-0.63,0.223,-0.008,0.04,0.236
'0:00.127',0.875,0.195,-0.68,-0.535,0.777,-0.243,-0.915,0.589,-0.817,0.066,-0.628,0.224,-0.007,0.043,0.237
'0:00.128',0.875,0.195,-0.68,-0.535,0.777,-0.242,-0.915,0.588,-0.817,0.065,-0.627,0.226,-0.005,0.043,0.237
'0:00.129',0.875,0.194,-0.681,-0.535,0.778,-0.244,-0.915,0.588,-0.818,0.064,-0.628,0.226,-0.005,0.04,0.238
'0:00.130',0.875,0.194,-0.681,-0.535,0.778,-0.244,-0.916,0.588,-0.819,0.062,-0.631,0.223,-0.007,0.042,0.24
'0:00.131',0.876,0.198,-0.678,-0.537,0.777,-0.24,-0.917,0.587,-0.82,0.06,-0.633,0.222,-0.008,0.044,0.24
'0:00.132',0.88,0.202,-0.678,-0.541,0.779,-0.238,-0.919,0.585,-0.821,0.059,-0.633,0.222,-0.008,0.043,0.24
'0:00.133',0.883,0.205,-0.677,-0.544,0.78,-0.236,-0.918,0.587,-0.819,0.06,-0.631,0.223,-0.007,0.046,0.241
'0:00.134',0.882,0.203,-0.678,-0.543,0.779,-0.237,-0.917,0.587,-0.819,0.061,-0.632,0.224,-0.007,0.046,0.242
'0:00.135',0.878,0.199,-0.68,-0.538,0.779,-0.241,-0.918,0.587,-0.82,0.06,-0.634,0.221,-0.009,0.04,0.242
'0:00.136',0.878,0.198,-0.68,-0.538,0.779,-0.241,-0.919,0.587,-0.82,0.061,-0.635,0.22,-0.009,0.042,0.242
'0:00.137',0.879,0.2,-0.68,-0.539,0.779,-0.24,-0.919,0.587,-0.82,0.062,-0.634,0.22,-0.009,0.043,0.242
'0:00.138',0.876,0.197,-0.679,-0.536,0.777,-0.241,-0.918,0.589,-0.819,0.064,-0.632,0.221,-0.009,0.041,0.241
'0:00.139',0.876,0.198,-0.679,-0.537,0.777,-0.241,-0.918,0.589,-0.818,0.065,-0.631,0.223,-0.009,0.042,0.242
'0:00.140',0.876,0.197,-0.679,-0.537,0.777,-0.241,-0.917,0.59,-0.817,0.065,-0.629,0.224,-0.007,0.043,0.242
'0:00.141',0.875,0.197,-0.678,-0.536,0.776,-0.241,-0.917,0.59,-0.816,0.068,-0.63,0.224,-0.009,0.042,0.241
'0:00.142',0.875,0.195,-0.68,-0.536,0.778,-0.243,-0.918,0.59,-0.816,0.067,-0.63,0.225,-0.008,0.041,0.242
'0:00.143',0.873,0.192,-0.681,-0.533,0.777,-0.244,-0.917,0.59,-0.817,0.065,-0.629,0.225,-0.008,0.04,0.241
'0:00.144',0.875,0.194,-0.681,-0.534,0.778,-0.244,-0.915,0.59,-0.817,0.064,-0.63,0.223,-0.009,0.043,0.239
'0:00.145',0.876,0.194,-0.682,-0.535,0.779,-0.244,-0.915,0.59,-0.816,0.064,-0.63,0.222,-0.009,0.041,0.238
'0:00.146',0.875,0.196,-0.679,-0.536,0.777,-0.242,-0.914,0.591,-0.816,0.064,-0.631,0.223,-0.009,0.04,0.238
'0:00.147',0.877,0.198,-0.68,-0.537,0.778,-0.241,-0.912,0.592,-0.816,0.063,-0.629,0.224,-0.008,0.043,0.238
'0:00.148',0.875,0.197,-0.678,-0.536,0.776,-0.24,-0.912,0.592,-0.815,0.066,-0.629,0.223,-0.008,0.043,0.239
'0:00.149',0.875,0.197,-0.677,-0.536,0.776,-0.24,-0.911,0.593,-0.815,0.065,-0.629,0.223,-0.008,0.044,0.239
'0:00.150',0.877,0.198,-0.68,-0.537,0.778,-0.241,-0.911,0.593,-0.814,0.065,-0.627,0.225,-0.007,0.043,0.238
'0:00.151',0.876,0.198,-0.679,-0.537,0.777,-0.241,-0.912,0.594,-0.815,0.066,-0.627,0.226,-0.006,0.042,0.24
'0:00.152',0.877,0.198,-0.679,-0.537,0.778,-0.241,-0.912,0.593,-0.814,0.066,-0.626,0.228,-0.005,0.043,0.239
'0:00.153',0.875,0.196,-0.678,-0.535,0.776,-0.241,-0.912,0.594,-0.812,0.067,-0.625,0.229,-0.006,0.042,0.237
'0:00.154',0.874,0.193,-0.681,-0.534,0.777,-0.244,-0.911,0.595,-0.812,0.067,-0.624,0.229,-0.006,0.042,0.237
'0:00.155',0.878,0.196,-0.682,-0.537,0.78,-0.243,-0.91,0.597,-0.81,0.067,-0.623,0.229,-0.006,0.043,0.236
'0:00.156',0.88,0.198,-0.682,-0.539,0.781,-0.242,-0.909,0.599,-0.811,0.069,-0.622,0.229,-0.006,0.042,0.235
'0:00.157',0.881,0.198,-0.684,-0.539,0.782,-0.243,-0.907,0.599,-0.809,0.071,-0.62,0.232,-0.004,0.04,0.233
'0:00.158',0.882,0.198,-0.684,-0.54,0.783,-0.243,-0.906,0.602,-0.806,0.072,-0.619,0.234,-0.003,0.042,0.233
'0:00.159',0.882,0.199,-0.683,-0.54,0.782,-0.242,-0.905,0.603,-0.804,0.072,-0.62,0.234,-0.004,0.044,0.233
'0:00.160',0.883,0.202,-0.682,-0.542,0.782,-0.24,-0.905,0.603,-0.801,0.074,-0.618,0.234,-0.003,0.045,0.231
'0:00.161',0.886,0.204,-0.682,-0.545,0.784,-0.239,-0.904,0.606,-0.798,0.076,-0.616,0.237,-0.002,0.049,0.232
'0:00.162',0.887,0.205,-0.681,-0.546,0.784,-0.238,-0.902,0.608,-0.798,0.076,-0.618,0.236,-0.002,0.047,0.231
'0:00.163',0.886,0.206,-0.679,-0.546,0.782,-0.237,-0.902,0.611,-0.796,0.079,-0.616,0.237,-0.002,0.044,0.229
'0:00.164',0.886,0.208,-0.677,-0.547,0.781,-0.234,-0.901,0.611,-0.793,0.082,-0.614,0.239,0,0.051,0.228
'0:00.165',0.886,0.211,-0.676,-0.549,0.781,-0.233,-0.899,0.614,-0.791,0.084,-0.612,0.239,-0.001,0.052,0.226
'0:00.166',0.888,0.216,-0.672,-0.552,0.78,-0.228,-0.899,0.616,-0.787,0.087,-0.609,0.241,-0.001,0.055,0.225
'0:00.167',0.889,0.22,-0.669,-0.555,0.779,-0.225,-0.899,0.617,-0.787,0.088,-0.609,0.242,-0.001,0.058,0.224
'0:00.168',0.888,0.218,-0.67,-0.553,0.779,-0.226,-0.898,0.618,-0.787,0.088,-0.609,0.241,-0.002,0.058,0.224
'0:00.169',0.885,0.216,-0.668,-0.55,0.776,-0.226,-0.897,0.616,-0.788,0.088,-0.61,0.239,-0.005,0.059,0.224
'0:00.170',0.883,0.217,-0.666,-0.55,0.774,-0.225,-0.898,0.615,-0.789,0.087,-0.611,0.238,-0.006,0.06,0.224
'0:00.171',0.886,0.222,-0.664,-0.554,0.775,-0.221,-0.898,0.614,-0.789,0.087,-0.611,0.239,-0.006,0.065,0.222
'0:00.172',0.886,0.225,-0.661,-0.556,0.774,-0.218,-0.896,0.616,-0.787,0.089,-0.61,0.238,-0.006,0.069,0.222
'0:00.173',0.882,0.227,-0.655,-0.555,0.768,-0.214,-0.893,0.619,-0.785,0.092,-0.609,0.239,-0.007,0.07,0.221
'0:00.174',0.882,0.228,-0.654,-0.555,0.768,-0.213,-0.892,0.621,-0.784,0.093,-0.61,0.239,-0.009,0.072,0.216
'0:00.175',0.886,0.231,-0.656,-0.558,0.771,-0.213,-0.89,0.62,-0.784,0.093,-0.61,0.24,-0.009,0.072,0.216
'0:00.176',0.887,0.233,-0.654,-0.56,0.77,-0.21,-0.891,0.621,-0.783,0.094,-0.608,0.241,-0.007,0.075,0.215
'0:00.177',0.889,0.236,-0.653,-0.563,0.77,-0.208,-0.891,0.623,-0.783,0.094,-0.607,0.241,-0.006,0.079,0.215
'0:00.178',0.889,0.238,-0.651,-0.565,0.77,-0.206,-0.891,0.624,-0.783,0.094,-0.607,0.242,-0.005,0.078,0.216
'0:00.179',0.89,0.24,-0.649,-0.566,0.769,-0.204,-0.894,0.624,-0.783,0.095,-0.605,0.245,-0.002,0.078,0.216
'0:00.180',0.893,0.247,-0.645,-0.571,0.769,-0.199,-0.896,0.623,-0.782,0.096,-0.606,0.245,-0.001,0.085,0.217
'0:00.181',0.893,0.25,-0.643,-0.572,0.767,-0.197,-0.897,0.624,-0.781,0.096,-0.606,0.245,-0.002,0.088,0.218
'0:00.182',0.894,0.253,-0.642,-0.574,0.768,-0.195,-0.897,0.624,-0.782,0.097,-0.605,0.247,-0.002,0.089,0.217
'0:00.183',0.897,0.256,-0.642,-0.577,0.769,-0.194,-0.892,0.625,-0.779,0.098,-0.604,0.247,-0.001,0.09,0.215
'0:00.184',0.894,0.255,-0.639,-0.575,0.766,-0.193,-0.888,0.628,-0.777,0.099,-0.604,0.245,-0.004,0.089,0.213
'0:00.185',0.892,0.253,-0.64,-0.573,0.766,-0.194,-0.887,0.628,-0.778,0.098,-0.605,0.245,-0.005,0.087,0.212
'0:00.186',0.894,0.252,-0.641,-0.574,0.767,-0.195,-0.886,0.629,-0.778,0.099,-0.604,0.245,-0.004,0.087,0.211
'0:00.187',0.894,0.255,-0.639,-0.575,0.767,-0.192,-0.886,0.631,-0.776,0.101,-0.602,0.246,-0.001,0.089,0.21
'0:00.188',0.896,0.256,-0.641,-0.576,0.769,-0.193,-0.886,0.631,-0.774,0.102,-0.598,0.248,0.002,0.09,0.209
'0:00.189',0.896,0.258,-0.638,-0.578,0.767,-0.19,-0.885,0.633,-0.774,0.104,-0.596,0.251,0.003,0.091,0.208
'0:00.190',0.898,0.262,-0.637,-0.58,0.767,-0.188,-0.886,0.635,-0.772,0.106,-0.594,0.253,0.004,0.095,0.206
'0:00.191',0.901,0.263,-0.638,-0.582,0.77,-0.188,-0.889,0.634,-0.771,0.106,-0.593,0.254,0.004,0.092,0.207
'0:00.192',0.902,0.262,-0.64,-0.582,0.771,-0.19,-0.888,0.634,-0.771,0.107,-0.591,0.255,0.004,0.091,0.207
'0:00.193',0.901,0.262,-0.64,-0.582,0.77,-0.19,-0.889,0.635,-0.77,0.111,-0.59,0.256,0.005,0.093,0.207
'0:00.194',0.902,0.262,-0.64,-0.583,0.771,-0.189,-0.891,0.636,-0.769,0.111,-0.59,0.255,0.005,0.092,0.208
'0:00.195',0.903,0.264,-0.64,-0.584,0.771,-0.188,-0.891,0.637,-0.768,0.111,-0.589,0.256,0.005,0.093,0.207
'0:00.196',0.906,0.268,-0.638,-0.588,0.772,-0.185,-0.895,0.635,-0.768,0.112,-0.589,0.258,0.006,0.096,0.209
'0:00.197',0.91,0.27,-0.64,-0.59,0.775,-0.185,-0.898,0.633,-0.769,0.11,-0.591,0.257,0.006,0.093,0.21
'0:00.198',0.908,0.27,-0.638,-0.59,0.773,-0.184,-0.896,0.635,-0.768,0.111,-0.591,0.258,0.005,0.095,0.209
'0:00.199',0.907,0.271,-0.636,-0.589,0.771,-0.183,-0.892,0.64,-0.763,0.115,-0.587,0.26,0.005,0.099,0.206
'0:00.200',0.907,0.273,-0.634,-0.591,0.77,-0.18,-0.891,0.641,-0.761,0.117,-0.584,0.261,0.005,0.102,0.206
'0:00.201',0.909,0.275,-0.634,-0.593,0.771,-0.18,-0.893,0.641,-0.76,0.119,-0.584,0.262,0.006,0.104,0.208
'0:00.202',0.908,0.277,-0.631,-0.593,0.769,-0.177,-0.896,0.64,-0.759,0.12,-0.583,0.261,0.005,0.105,0.208
'0:00.203',0.906,0.282,-0.624,-0.595,0.765,-0.171,-0.895,0.641,-0.757,0.12,-0.581,0.263,0.004,0.111,0.208
'0:00.204',0.905,0.288,-0.618,-0.597,0.761,-0.165,-0.893,0.643,-0.755,0.123,-0.579,0.265,0.004,0.116,0.205
'0:00.205',0.906,0.295,-0.611,-0.601,0.758,-0.158,-0.893,0.644,-0.753,0.124,-0.578,0.265,0.003,0.122,0.204
'0:00.206',0.911,0.303,-0.608,-0.608,0.759,-0.152,-0.891,0.649,-0.747,0.129,-0.573,0.27,0.006,0.129,0.202
'0:00.207',0.915,0.313,-0.603,-0.615,0.758,-0.144,-0.889,0.654,-0.742,0.136,-0.568,0.273,0.007,0.134,0.199
'0:00.208',0.919,0.319,-0.601,-0.62,0.76,-0.141,-0.89,0.655,-0.739,0.139,-0.565,0.276,0.011,0.139,0.198
'0:00.209',0.922,0.317,-0.606,-0.62,0.763,-0.144,-0.889,0.656,-0.737,0.14,-0.562,0.279,0.015,0.136,0.198
'0:00.210',0.924,0.314,-0.611,-0.619,0.767,-0.149,-0.889,0.653,-0.738,0.14,-0.563,0.279,0.017,0.131,0.2
'0:00.211',0.925,0.312,-0.614,-0.619,0.769,-0.15,-0.894,0.646,-0.741,0.138,-0.564,0.28,0.02,0.131,0.203
'0:00.212',0.923,0.307,-0.616,-0.616,0.769,-0.154,-0.898,0.64,-0.746,0.136,-0.564,0.281,0.021,0.127,0.206
'0:00.213',0.925,0.304,-0.621,-0.616,0.773,-0.158,-0.902,0.631,-0.752,0.131,-0.567,0.281,0.021,0.121,0.212
'0:00.214',0.927,0.302,-0.625,-0.615,0.775,-0.162,-0.907,0.624,-0.758,0.125,-0.571,0.28,0.021,0.118,0.215
'0:00.215',0.927,0.299,-0.627,-0.614,0.776,-0.164,-0.914,0.615,-0.765,0.12,-0.575,0.278,0.02,0.112,0.22
'0:00.216',0.933,0.3,-0.633,-0.617,0.783,-0.167,-0.922,0.606,-0.771,0.115,-0.577,0.277,0.022,0.11,0.226
'0:00.217',0.937,0.302,-0.634,-0.62,0.785,-0.166,-0.928,0.604,-0.771,0.115,-0.576,0.28,0.025,0.11,0.227
'0:00.218',0.935,0.308,-0.627,-0.622,0.78,-0.16,-0.932,0.602,-0.77,0.117,-0.573,0.282,0.026,0.112,0.227
'0:00.219',0.937,0.309,-0.628,-0.624,0.782,-0.16,-0.938,0.599,-0.772,0.117,-0.572,0.281,0.026,0.113,0.229
'0:00.220',0.943,0.31,-0.633,-0.626,0.788,-0.162,-0.947,0.594,-0.775,0.116,-0.573,0.283,0.028,0.112,0.231
'0:00.221',0.948,0.311,-0.636,-0.629,0.791,-0.163,-0.954,0.593,-0.776,0.116,-0.573,0.284,0.03,0.11,0.234
'0:00.222',0.948,0.307,-0.641,-0.628,0.794,-0.167,-0.958,0.592,-0.778,0.114,-0.575,0.281,0.028,0.107,0.234
'0:00.223',0.952,0.308,-0.643,-0.63,0.797,-0.168,-0.96,0.591,-0.778,0.113,-0.574,0.281,0.032,0.108,0.232
'0:00.224',0.953,0.311,-0.641,-0.632,0.797,-0.165,-0.961,0.593,-0.777,0.114,-0.572,0.283,0.034,0.108,0.233
'0:00.225',0.951,0.309,-0.642,-0.63,0.796,-0.167,-0.961,0.59,-0.78,0.111,-0.574,0.283,0.033,0.106,0.235
'0:00.226',0.951,0.306,-0.645,-0.629,0.797,-0.17,-0.962,0.588,-0.782,0.109,-0.577,0.282,0.033,0.104,0.237
'0:00.227',0.948,0.304,-0.644,-0.626,0.795,-0.17,-0.961,0.589,-0.783,0.108,-0.577,0.281,0.032,0.102,0.237
'0:00.228',0.944,0.301,-0.643,-0.623,0.793,-0.171,-0.958,0.59,-0.783,0.107,-0.579,0.28,0.032,0.102,0.234
'0:00.229',0.946,0.302,-0.643,-0.624,0.794,-0.171,-0.958,0.591,-0.784,0.106,-0.579,0.28,0.032,0.104,0.234
'0:00.230',0.945,0.303,-0.641,-0.625,0.793,-0.169,-0.957,0.593,-0.783,0.111,-0.576,0.282,0.033,0.108,0.234
'0:00.231',0.945,0.304,-0.64,-0.625,0.792,-0.168,-0.959,0.593,-0.783,0.111,-0.575,0.283,0.034,0.109,0.235
'0:00.232',0.943,0.302,-0.64,-0.623,0.79,-0.169,-0.96,0.593,-0.783,0.111,-0.576,0.282,0.034,0.11,0.237
'0:00.233',0.941,0.299,-0.642,-0.621,0.791,-0.172,-0.956,0.596,-0.781,0.112,-0.575,0.282,0.035,0.105,0.236
'0:00.234',0.943,0.295,-0.647,-0.62,0.794,-0.176,-0.956,0.596,-0.782,0.111,-0.574,0.283,0.037,0.1,0.236
'0:00.235',0.942,0.291,-0.65,-0.617,0.796,-0.179,-0.958,0.595,-0.782,0.11,-0.576,0.282,0.039,0.097,0.239
'0:00.236',0.941,0.288,-0.652,-0.615,0.796,-0.182,-0.957,0.597,-0.783,0.109,-0.577,0.28,0.037,0.093,0.239
'0:00.237',0.937,0.283,-0.653,-0.61,0.794,-0.185,-0.955,0.595,-0.785,0.107,-0.578,0.28,0.036,0.092,0.239
'0:00.238',0.934,0.281,-0.653,-0.608,0.793,-0.186,-0.955,0.592,-0.788,0.104,-0.581,0.279,0.034,0.094,0.242
'0:00.239',0.933,0.275,-0.657,-0.605,0.795,-0.192,-0.954,0.592,-0.79,0.102,-0.582,0.276,0.033,0.089,0.244
'0:00.240',0.932,0.272,-0.659,-0.602,0.795,-0.194,-0.954,0.592,-0.79,0.102,-0.582,0.276,0.034,0.085,0.244
'0:00.241',0.933,0.275,-0.658,-0.605,0.795,-0.192,-0.952,0.594,-0.788,0.104,-0.581,0.278,0.035,0.088,0.242
'0:00.242',0.931,0.272,-0.659,-0.602,0.795,-0.194,-0.949,0.596,-0.787,0.105,-0.581,0.279,0.034,0.088,0.241
'0:00.243',0.926,0.268,-0.659,-0.597,0.792,-0.196,-0.947,0.595,-0.788,0.103,-0.582,0.277,0.034,0.087,0.242
'0:00.244',0.926,0.266,-0.66,-0.596,0.793,-0.198,-0.947,0.594,-0.789,0.101,-0.585,0.276,0.033,0.086,0.244
'0:00.245',0.924,0.262,-0.662,-0.593,0.792,-0.2,-0.948,0.591,-0.794,0.097,-0.587,0.275,0.03,0.085,0.246
'0:00.246',0.923,0.256,-0.668,-0.59,0.795,-0.206,-0.949,0.589,-0.797,0.091,-0.591,0.271,0.029,0.077,0.249
'0:00.247',0.921,0.246,-0.675,-0.584,0.798,-0.214,-0.947,0.588,-0.801,0.087,-0.594,0.267,0.028,0.069,0.251
'0:00.248',0.916,0.241,-0.674,-0.579,0.795,-0.216,-0.943,0.59,-0.801,0.086,-0.596,0.264,0.025,0.067,0.249
'0:00.249',0.91,0.237,-0.673,-0.574,0.792,-0.218,-0.939,0.594,-0.8,0.086,-0.599,0.26,0.021,0.064,0.247
'0:00.250',0.901,0.229,-0.672,-0.565,0.786,-0.222,-0.933,0.595,-0.801,0.084,-0.603,0.255,0.016,0.062,0.245
'0:00.251',0.897,0.222,-0.675,-0.56,0.786,-0.227,-0.931,0.596,-0.802,0.082,-0.605,0.251,0.011,0.056,0.245
'0:00.252',0.893,0.215,-0.678,-0.555,0.786,-0.232,-0.93,0.594,-0.805,0.076,-0.61,0.247,0.007,0.054,0.247
'0:00.253',0.889,0.209,-0.679,-0.549,0.784,-0.234,-0.928,0.592,-0.808,0.072,-0.616,0.242,0.003,0.051,0.249
'0:00.254',0.887,0.203,-0.684,-0.545,0.785,-0.241,-0.926,0.591,-0.811,0.069,-0.621,0.236,-0.002,0.043,0.248
'0:00.255',0.884,0.201,-0.683,-0.542,0.783,-0.241,-0.923,0.593,-0.81,0.069,-0.622,0.234,-0.003,0.042,0.246
'0:00.256',0.879,0.199,-0.681,-0.539,0.78,-0.241,-0.923,0.593,-0.81,0.067,-0.624,0.233,-0.005,0.043,0.247
'0:00.257',0.876,0.198,-0.678,-0.537,0.777,-0.24,-0.925,0.59,-0.815,0.066,-0.626,0.231,-0.006,0.042,0.248
'0:00.258',0.877,0.196,-0.682,-0.536,0.779,-0.243,-0.924,0.593,-0.813,0.064,-0.626,0.23,-0.005,0.037,0.248
'0:00.259',0.877,0.19,-0.687,-0.534,0.782,-0.248,-0.922,0.593,-0.811,0.064,-0.626,0.229,-0.005,0.035,0.246
'0:00.260',0.875,0.19,-0.685,-0.533,0.78,-0.248,-0.923,0.591,-0.814,0.061,-0.627,0.228,-0.005,0.035,0.247
'0:00.261',0.876,0.192,-0.685,-0.534,0.78,-0.246,-0.925,0.589,-0.816,0.059,-0.627,0.229,-0.005,0.037,0.249
'0:00.262',0.877,0.193,-0.684,-0.535,0.78,-0.246,-0.926,0.587,-0.816,0.06,-0.628,0.229,-0.005,0.038,0.251
'0:00.263',0.876,0.191,-0.686,-0.533,0.781,-0.248,-0.925,0.586,-0.819,0.058,-0.63,0.227,-0.006,0.035,0.251
'0:00.264',0.877,0.187,-0.69,-0.532,0.783,-0.252,-0.924,0.586,-0.821,0.056,-0.631,0.226,-0.006,0.032,0.251
'0:00.265',0.875,0.183,-0.692,-0.529,0.783,-0.254,-0.925,0.585,-0.822,0.053,-0.634,0.225,-0.007,0.03,0.252
'0:00.266',0.875,0.182,-0.693,-0.528,0.783,-0.255,-0.926,0.583,-0.825,0.051,-0.635,0.224,-0.006,0.03,0.253
'0:00.267',0.878,0.18,-0.698,-0.529,0.788,-0.26,-0.927,0.582,-0.826,0.049,-0.636,0.223,-0.005,0.024,0.255
'0:00.268',0.878,0.176,-0.702,-0.527,0.79,-0.263,-0.926,0.583,-0.827,0.049,-0.636,0.222,-0.004,0.019,0.256
'0:00.269',0.876,0.177,-0.7,-0.527,0.787,-0.262,-0.926,0.583,-0.825,0.049,-0.636,0.222,-0.004,0.025,0.256
'0:00.270',0.877,0.174,-0.703,-0.526,0.789,-0.264,-0.925,0.583,-0.825,0.049,-0.636,0.223,-0.004,0.024,0.256
'0:00.271',0.877,0.175,-0.701,-0.526,0.788,-0.263,-0.925,0.581,-0.828,0.05,-0.637,0.222,-0.005,0.022,0.255
'0:00.272',0.875,0.175,-0.7,-0.525,0.787,-0.263,-0.925,0.58,-0.827,0.051,-0.637,0.221,-0.006,0.021,0.255
'0:00.273',0.874,0.172,-0.702,-0.523,0.787,-0.265,-0.924,0.581,-0.826,0.051,-0.637,0.221,-0.006,0.021,0.256
'0:00.274',0.875,0.173,-0.703,-0.524,0.789,-0.265,-0.924,0.582,-0.825,0.051,-0.638,0.221,-0.006,0.021,0.254
'0:00.275',0.875,0.172,-0.704,-0.523,0.789,-0.266,-0.923,0.582,-0.825,0.051,-0.637,0.222,-0.006,0.019,0.255
'0:00.276',0.876,0.173,-0.703,-0.525,0.789,-0.265,-0.923,0.582,-0.825,0.051,-0.638,0.222,-0.006,0.022,0.256
'0:00.277',0.877,0.172,-0.706,-0.525,0.791,-0.267,-0.924,0.583,-0.826,0.05,-0.639,0.222,-0.006,0.02,0.255
'0:00.278',0.873,0.17,-0.703,-0.521,0.788,-0.267,-0.923,0.582,-0.825,0.05,-0.639,0.222,-0.006,0.018,0.255
'0:00.279',0.873,0.169,-0.703,-0.521,0.787,-0.267,-0.923,0.582,-0.824,0.05,-0.64,0.222,-0.009,0.018,0.255
'0:00.280',0.872,0.168,-0.704,-0.52,0.787,-0.268,-0.921,0.583,-0.824,0.05,-0.639,0.221,-0.009,0.018,0.256
'0:00.281',0.872,0.168,-0.704,-0.52,0.787,-0.268,-0.921,0.582,-0.825,0.049,-0.64,0.221,-0.01,0.02,0.256
'0:00.282',0.873,0.169,-0.704,-0.521,0.788,-0.268,-0.923,0.581,-0.827,0.047,-0.64,0.22,-0.009,0.018,0.256
'0:00.283',0.87,0.169,-0.701,-0.519,0.785,-0.266,-0.924,0.58,-0.827,0.046,-0.641,0.218,-0.01,0.021,0.257
'0:00.284',0.871,0.169,-0.703,-0.519,0.786,-0.267,-0.924,0.58,-0.827,0.046,-0.642,0.217,-0.009,0.019,0.257
'0:00.285',0.871,0.168,-0.702,-0.519,0.786,-0.267,-0.924,0.579,-0.829,0.045,-0.641,0.218,-0.01,0.021,0.258
'0:00.286',0.867,0.166,-0.701,-0.516,0.783,-0.268,-0.923,0.58,-0.828,0.044,-0.642,0.22,-0.011,0.018,0.257
'0:00.287',0.869,0.165,-0.704,-0.516,0.786,-0.27,-0.921,0.581,-0.827,0.046,-0.64,0.221,-0.011,0.015,0.256
'0:00.288',0.866,0.163,-0.703,-0.515,0.784,-0.27,-0.921,0.581,-0.827,0.045,-0.641,0.22,-0.011,0.017,0.256
'0:00.289',0.867,0.162,-0.706,-0.514,0.786,-0.272,-0.921,0.581,-0.827,0.045,-0.641,0.22,-0.011,0.016,0.255
'0:00.290',0.867,0.163,-0.704,-0.514,0.784,-0.271,-0.92,0.581,-0.827,0.047,-0.64,0.221,-0.011,0.02,0.255
'0:00.291',0.864,0.162,-0.702,-0.513,0.782,-0.27,-0.92,0.581,-0.827,0.046,-0.64,0.22,-0.012,0.021,0.254
'0:00.292',0.868,0.164,-0.704,-0.516,0.785,-0.27,-0.92,0.582,-0.828,0.047,-0.64,0.22,-0.011,0.018,0.255
'0:00.293',0.864,0.162,-0.703,-0.513,0.783,-0.271,-0.919,0.582,-0.828,0.046,-0.639,0.22,-0.011,0.017,0.254
'0:00.294',0.862,0.157,-0.705,-0.509,0.783,-0.274,-0.918,0.581,-0.828,0.046,-0.638,0.221,-0.011,0.017,0.253
'0:00.295',0.862,0.157,-0.706,-0.509,0.784,-0.275,-0.918,0.58,-0.828,0.045,-0.64,0.221,-0.01,0.015,0.254
'0:00.296',0.863,0.159,-0.705,-0.511,0.783,-0.273,-0.916,0.581,-0.828,0.048,-0.64,0.22,-0.011,0.013,0.254
'0:00.297',0.864,0.159,-0.705,-0.511,0.783,-0.273,-0.917,0.582,-0.827,0.05,-0.638,0.222,-0.011,0.013,0.253
'0:00.298',0.863,0.158,-0.705,-0.51,0.783,-0.274,-0.917,0.581,-0.827,0.049,-0.639,0.221,-0.011,0.015,0.253
'0:00.299',0.863,0.159,-0.705,-0.511,0.784,-0.273,-0.916,0.583,-0.824,0.049,-0.639,0.22,-0.011,0.015,0.253
'0:00.300',0.861,0.157,-0.704,-0.509,0.782,-0.274,-0.915,0.583,-0.824,0.049,-0.639,0.219,-0.011,0.015,0.253
'0:00.301',0.859,0.156,-0.703,-0.507,0.78,-0.274,-0.915,0.583,-0.827,0.047,-0.641,0.217,-0.013,0.013,0.253
'0:00.302',0.86,0.159,-0.701,-0.509,0.78,-0.271,-0.916,0.582,-0.828,0.047,-0.642,0.216,-0.013,0.015,0.251
'0:00.303',0.861,0.159,-0.702,-0.51,0.781,-0.272,-0.916,0.582,-0.828,0.046,-0.642,0.217,-0.013,0.018,0.252
'0:00.304',0.861,0.159,-0.702,-0.51,0.781,-0.272,-0.917,0.582,-0.827,0.047,-0.641,0.217,-0.013,0.018,0.252
'0:00.305',0.862,0.161,-0.701,-0.511,0.78,-0.27,-0.915,0.583,-0.827,0.048,-0.64,0.217,-0.013,0.018,0.252
'0:00.306',0.86,0.161,-0.7,-0.51,0.779,-0.27,-0.914,0.585,-0.825,0.049,-0.64,0.217,-0.013,0.018,0.251
'0:00.307',0.86,0.161,-0.699,-0.51,0.779,-0.269,-0.914,0.584,-0.827,0.048,-0.641,0.216,-0.015,0.019,0.251
'0:00.308',0.859,0.159,-0.7,-0.509,0.779,-0.271,-0.914,0.583,-0.829,0.046,-0.641,0.216,-0.015,0.018,0.251
'0:00.309',0.861,0.161,-0.7,-0.511,0.78,-0.27,-0.915,0.585,-0.827,0.049,-0.64,0.216,-0.014,0.017,0.25
'0:00.310',0.86,0.161,-0.699,-0.51,0.779,-0.269,-0.913,0.587,-0.826,0.05,-0.639,0.217,-0.014,0.018,0.249
'0:00.311',0.858,0.159,-0.699,-0.508,0.778,-0.27,-0.913,0.587,-0.825,0.05,-0.639,0.218,-0.013,0.019,0.249
'0:00.312',0.862,0.161,-0.702,-0.511,0.782,-0.271,-0.915,0.586,-0.826,0.049,-0.641,0.22,-0.011,0.019,0.252
'0:00.313',0.862,0.163,-0.7,-0.512,0.78,-0.269,-0.915,0.585,-0.827,0.05,-0.64,0.218,-0.013,0.02,0.251
'0:00.314',0.862,0.164,-0.698,-0.512,0.779,-0.268,-0.915,0.585,-0.827,0.048,-0.642,0.217,-0.013,0.021,0.251
'0:00.315',0.861,0.162,-0.699,-0.512,0.779,-0.269,-0.914,0.586,-0.828,0.047,-0.644,0.218,-0.013,0.021,0.252
'0:00.316',0.859,0.161,-0.698,-0.51,0.778,-0.269,-0.913,0.585,-0.828,0.045,-0.643,0.215,-0.015,0.021,0.251
'0:00.317',0.86,0.161,-0.7,-0.51,0.78,-0.27,-0.913,0.585,-0.829,0.046,-0.643,0.216,-0.014,0.021,0.252
'0:00.318',0.858,0.161,-0.698,-0.509,0.777,-0.269,-0.911,0.586,-0.828,0.048,-0.641,0.217,-0.015,0.022,0.251
'0:00.319',0.857,0.161,-0.696,-0.509,0.775,-0.267,-0.91,0.588,-0.827,0.048,-0.64,0.217,-0.015,0.021,0.251
'0:00.320',0.861,0.162,-0.699,-0.511,0.779,-0.269,-0.91,0.589,-0.826,0.048,-0.64,0.216,-0.015,0.021,0.251
'0:00.321',0.862,0.162,-0.7,-0.512,0.78,-0.269,-0.91,0.589,-0.826,0.049,-0.639,0.217,-0.015,0.018,0.251
'0:00.322',0.862,0.16,-0.702,-0.511,0.781,-0.271,-0.909,0.59,-0.826,0.049,-0.64,0.218,-0.013,0.018,0.251
'0:00.323',0.858,0.158,-0.7,-0.508,0.778,-0.271,-0.907,0.59,-0.824,0.05,-0.641,0.217,-0.014,0.022,0.25
'0:00.324',0.856,0.159,-0.697,-0.507,0.775,-0.269,-0.908,0.59,-0.824,0.05,-0.641,0.219,-0.014,0.024,0.251
'0:00.325',0.858,0.16,-0.698,-0.509,0.777,-0.269,-0.909,0.588,-0.825,0.048,-0.641,0.218,-0.014,0.018,0.251
'0:00.326',0.858,0.16,-0.698,-0.508,0.777,-0.269,-0.909,0.587,-0.825,0.048,-0.642,0.214,-0.017,0.018,0.251
'0:00.327',0.856,0.16,-0.697,-0.508,0.775,-0.269,-0.908,0.587,-0.826,0.045,-0.645,0.212,-0.018,0.021,0.25
'0:00.328',0.853,0.158,-0.695,-0.505,0.773,-0.269,-0.906,0.588,-0.826,0.046,-0.645,0.213,-0.018,0.019,0.249
'0:00.329',0.853,0.158,-0.696,-0.505,0.774,-0.269,-0.907,0.588,-0.826,0.05,-0.643,0.215,-0.018,0.018,0.249
'0:00.330',0.853,0.157,-0.697,-0.505,0.774,-0.27,-0.906,0.589,-0.825,0.05,-0.642,0.215,-0.018,0.019,0.249
'0:00.331',0.852,0.155,-0.696,-0.503,0.773,-0.271,-0.906,0.589,-0.825,0.05,-0.644,0.214,-0.018,0.02,0.248
'0:00.332',0.854,0.155,-0.699,-0.504,0.776,-0.272,-0.905,0.591,-0.825,0.05,-0.644,0.214,-0.017,0.018,0.248
'0:00.333',0.855,0.155,-0.7,-0.505,0.777,-0.273,-0.904,0.592,-0.824,0.05,-0.643,0.216,-0.017,0.017,0.248
'0:00.334',0.856,0.158,-0.698,-0.507,0.777,-0.27,-0.904,0.592,-0.824,0.051,-0.642,0.216,-0.017,0.018,0.248
'0:00.335',0.854,0.158,-0.696,-0.506,0.774,-0.269,-0.904,0.594,-0.823,0.052,-0.642,0.217,-0.018,0.018,0.248
'0:00.336',0.856,0.158,-0.698,-0.507,0.776,-0.27,-0.904,0.593,-0.822,0.053,-0.641,0.218,-0.017,0.02,0.248
'0:00.337',0.859,0.159,-0.7,-0.509,0.779,-0.271,-0.904,0.593,-0.821,0.053,-0.639,0.22,-0.015,0.022,0.248
'0:00.338',0.858,0.159,-0.699,-0.508,0.777,-0.27,-0.905,0.593,-0.821,0.052,-0.638,0.22,-0.015,0.019,0.249
'0:00.339',0.858,0.159,-0.699,-0.508,0.778,-0.27,-0.905,0.592,-0.821,0.053,-0.639,0.219,-0.017,0.018,0.25
'0:00.340',0.857,0.159,-0.698,-0.508,0.777,-0.27,-0.904,0.592,-0.821,0.053,-0.638,0.219,-0.018,0.019,0.249
'0:00.341',0.858,0.159,-0.699,-0.508,0.778,-0.27,-0.905,0.593,-0.821,0.052,-0.639,0.218,-0.018,0.021,0.249
'0:00.342',0.854,0.157,-0.697,-0.505,0.775,-0.271,-0.904,0.592,-0.821,0.051,-0.641,0.217,-0.018,0.021,0.248
'0:00.343',0.851,0.154,-0.697,-0.503,0.773,-0.272,-0.904,0.592,-0.823,0.051,-0.641,0.216,-0.021,0.021,0.248
'0:00.344',0.854,0.157,-0.697,-0.505,0.775,-0.271,-0.904,0.592,-0.823,0.051,-0.643,0.216,-0.019,0.02,0.248
'0:00.345',0.855,0.158,-0.696,-0.506,0.775,-0.269,-0.905,0.592,-0.822,0.052,-0.643,0.216,-0.018,0.018,0.248
'0:00.346',0.859,0.161,-0.698,-0.51,0.778,-0.269,-0.906,0.594,-0.822,0.052,-0.642,0.218,-0.018,0.021,0.249
'0:00.347',0.856,0.163,-0.694,-0.509,0.774,-0.266,-0.907,0.593,-0.823,0.051,-0.642,0.218,-0.018,0.024,0.249
'0:00.348',0.855,0.162,-0.692,-0.508,0.773,-0.265,-0.907,0.592,-0.824,0.05,-0.642,0.219,-0.018,0.023,0.248
'0:00.349',0.857,0.163,-0.694,-0.51,0.775,-0.266,-0.907,0.591,-0.824,0.049,-0.643,0.218,-0.019,0.022,0.248
'0:00.350',0.856,0.163,-0.694,-0.509,0.774,-0.266,-0.907,0.591,-0.825,0.048,-0.645,0.217,-0.019,0.021,0.249
'0:00.351',0.857,0.165,-0.693,-0.51,0.774,-0.264,-0.906,0.592,-0.824,0.048,-0.644,0.217,-0.021,0.022,0.249
'0:00.352',0.859,0.167,-0.692,-0.512,0.775,-0.263,-0.907,0.592,-0.823,0.05,-0.643,0.217,-0.02,0.023,0.249
'0:00.353',0.859,0.168,-0.692,-0.513,0.775,-0.262,-0.908,0.591,-0.823,0.05,-0.642,0.218,-0.019,0.023,0.248
'0:00.354',0.859,0.167,-0.692,-0.513,0.774,-0.262,-0.909,0.59,-0.824,0.05,-0.643,0.216,-0.019,0.025,0.248
'0:00.355',0.858,0.166,-0.692,-0.512,0.774,-0.263,-0.909,0.59,-0.824,0.051,-0.643,0.217,-0.019,0.026,0.249
'0:00.356',0.856,0.167,-0.69,-0.511,0.772,-0.262,-0.908,0.59,-0.823,0.051,-0.643,0.219,-0.019,0.025,0.249
'0:00.357',0.857,0.167,-0.69,-0.512,0.773,-0.262,-0.908,0.592,-0.824,0.051,-0.643,0.219,-0.018,0.025,0.25
'0:00.358',0.857,0.167,-0.69,-0.512,0.772,-0.261,-0.909,0.591,-0.824,0.05,-0.644,0.217,-0.02,0.025,0.25
'0:00.359',0.856,0.166,-0.69,-0.511,0.772,-0.262,-0.91,0.59,-0.824,0.048,-0.644,0.216,-0.021,0.027,0.249
'0:00.360',0.855,0.165,-0.69,-0.51,0.772,-0.263,-0.908,0.59,-0.823,0.049,-0.644,0.216,-0.021,0.025,0.249
'0:00.361',0.855,0.166,-0.689,-0.51,0.771,-0.262,-0.909,0.59,-0.823,0.049,-0.646,0.218,-0.019,0.026,0.251
'0:00.362',0.857,0.166,-0.691,-0.511,0.774,-0.263,-0.909,0.59,-0.825,0.049,-0.645,0.218,-0.018,0.028,0.251
'0:00.363',0.854,0.164,-0.691,-0.509,0.772,-0.264,-0.908,0.587,-0.828,0.048,-0.644,0.217,-0.019,0.027,0.25
'0:00.364',0.854,0.164,-0.69,-0.509,0.771,-0.263,-0.908,0.588,-0.826,0.048,-0.643,0.216,-0.019,0.028,0.248
'0:00.365',0.855,0.164,-0.691,-0.509,0.772,-0.264,-0.905,0.589,-0.823,0.05,-0.642,0.216,-0.021,0.026,0.247
'0:00.366',0.856,0.164,-0.692,-0.509,0.773,-0.265,-0.906,0.589,-0.822,0.051,-0.64,0.22,-0.018,0.027,0.247
'0:00.367',0.855,0.163,-0.693,-0.509,0.773,-0.265,-0.904,0.591,-0.821,0.053,-0.638,0.222,-0.017,0.027,0.247
'0:00.368',0.854,0.162,-0.693,-0.507,0.772,-0.266,-0.904,0.591,-0.821,0.054,-0.637,0.223,-0.016,0.025,0.247
'0:00.369',0.854,0.163,-0.692,-0.508,0.772,-0.265,-0.906,0.589,-0.822,0.053,-0.636,0.223,-0.014,0.026,0.246
'0:00.370',0.854,0.16,-0.694,-0.507,0.773,-0.267,-0.905,0.591,-0.821,0.054,-0.635,0.223,-0.015,0.025,0.246
'0:00.371',0.855,0.159,-0.696,-0.507,0.774,-0.268,-0.904,0.594,-0.82,0.053,-0.636,0.222,-0.016,0.023,0.245
'0:00.372',0.851,0.158,-0.694,-0.504,0.772,-0.268,-0.903,0.595,-0.82,0.051,-0.638,0.22,-0.017,0.022,0.245
'0:00.373',0.85,0.155,-0.695,-0.503,0.772,-0.27,-0.901,0.597,-0.819,0.051,-0.637,0.221,-0.016,0.023,0.245
'0:00.374',0.852,0.153,-0.699,-0.503,0.775,-0.273,-0.9,0.601,-0.818,0.051,-0.641,0.215,-0.019,0.021,0.244
'0:00.375',0.85,0.145,-0.704,-0.497,0.776,-0.279,-0.894,0.611,-0.814,0.05,-0.646,0.208,-0.024,0.015,0.241
'0:00.376',0.85,0.138,-0.712,-0.494,0.78,-0.287,-0.888,0.62,-0.807,0.049,-0.649,0.205,-0.025,0.007,0.239
'0:00.377',0.85,0.129,-0.721,-0.489,0.784,-0.296,-0.883,0.629,-0.803,0.05,-0.654,0.199,-0.027,0.001,0.237
'0:00.378',0.847,0.119,-0.729,-0.483,0.787,-0.304,-0.874,0.646,-0.793,0.051,-0.66,0.19,-0.033,-0.005,0.232
'0:00.379',0.845,0.109,-0.737,-0.477,0.79,-0.314,-0.86,0.665,-0.779,0.054,-0.667,0.179,-0.04,-0.013,0.223
'0:00.380',0.841,0.096,-0.746,-0.469,0.793,-0.325,-0.845,0.69,-0.763,0.06,-0.675,0.167,-0.046,-0.022,0.212
'0:00.381',0.844,0.085,-0.758,-0.465,0.8,-0.337,-0.832,0.713,-0.748,0.066,-0.679,0.157,-0.052,-0.033,0.203
'0:00.382',0.845,0.073,-0.771,-0.46,0.808,-0.349,-0.822,0.729,-0.738,0.068,-0.689,0.147,-0.056,-0.045,0.198
'0:00.383',0.845,0.063,-0.781,-0.454,0.812,-0.359,-0.814,0.741,-0.73,0.071,-0.695,0.139,-0.06,-0.051,0.194
'0:00.384',0.843,0.062,-0.78,-0.453,0.811,-0.359,-0.807,0.748,-0.723,0.073,-0.699,0.131,-0.067,-0.051,0.188
'0:00.385',0.84,0.06,-0.779,-0.45,0.809,-0.359,-0.8,0.757,-0.713,0.079,-0.705,0.122,-0.071,-0.053,0.179
'0:00.386',0.84,0.057,-0.783,-0.449,0.811,-0.363,-0.794,0.768,-0.699,0.088,-0.704,0.118,-0.071,-0.056,0.172
'0:00.387',0.848,0.06,-0.788,-0.454,0.818,-0.364,-0.794,0.771,-0.694,0.095,-0.7,0.119,-0.067,-0.058,0.167
'0:00.388',0.856,0.072,-0.783,-0.465,0.82,-0.355,-0.8,0.763,-0.692,0.103,-0.693,0.126,-0.059,-0.053,0.163
'0:00.389',0.865,0.088,-0.776,-0.476,0.821,-0.344,-0.811,0.75,-0.693,0.114,-0.681,0.138,-0.049,-0.043,0.164
'0:00.390',0.876,0.107,-0.768,-0.492,0.822,-0.331,-0.825,0.738,-0.691,0.128,-0.663,0.152,-0.035,-0.032,0.161
'0:00.391',0.89,0.135,-0.755,-0.513,0.822,-0.31,-0.84,0.728,-0.678,0.152,-0.635,0.173,-0.015,-0.015,0.152
'0:00.392',0.911,0.157,-0.754,-0.534,0.833,-0.298,-0.854,0.722,-0.667,0.175,-0.607,0.196,0.009,-0.006,0.149
'0:00.393',0.931,0.184,-0.748,-0.558,0.84,-0.281,-0.872,0.711,-0.654,0.203,-0.573,0.222,0.032,0.011,0.142
'0:00.394',0.952,0.209,-0.742,-0.581,0.846,-0.266,-0.884,0.717,-0.625,0.24,-0.533,0.25,0.061,0.025,0.132
'0:00.395',0.974,0.234,-0.741,-0.604,0.857,-0.254,-0.895,0.728,-0.598,0.275,-0.494,0.279,0.09,0.037,0.123
'0:00.396',0.99,0.262,-0.727,-0.626,0.858,-0.233,-0.907,0.734,-0.574,0.308,-0.455,0.307,0.116,0.059,0.114
'0:00.397',1.01,0.283,-0.727,-0.647,0.869,-0.222,-0.913,0.746,-0.541,0.35,-0.411,0.341,0.149,0.069,0.103
'0:00.398',1.032,0.304,-0.728,-0.668,0.88,-0.212,-0.93,0.736,-0.53,0.38,-0.368,0.378,0.183,0.08,0.104
'0:00.399',1.045,0.333,-0.713,-0.689,0.878,-0.19,-0.957,0.691,-0.55,0.394,-0.333,0.416,0.211,0.098,0.114
'0:00.400',1.053,0.385,-0.668,-0.719,0.861,-0.142,-1,0.603,-0.601,0.398,-0.294,0.464,0.24,0.135,0.129
'0:00.401',1.062,0.44,-0.623,-0.751,0.843,-0.091,-1.042,0.522,-0.642,0.414,-0.239,0.517,0.276,0.178,0.141
'0:00.402',1.079,0.497,-0.583,-0.788,0.831,-0.043,-1.084,0.448,-0.673,0.441,-0.172,0.58,0.321,0.222,0.146
'0:00.403',1.093,0.558,-0.535,-0.827,0.814,0.012,-1.117,0.386,-0.703,0.464,-0.111,0.638,0.36,0.27,0.146
'0:00.404',1.11,0.61,-0.501,-0.86,0.805,0.054,-1.137,0.356,-0.707,0.502,-0.044,0.699,0.406,0.307,0.14
'0:00.405',1.125,0.664,-0.462,-0.895,0.794,0.101,-1.161,0.319,-0.707,0.549,0.037,0.769,0.458,0.348,0.136
'0:00.406',1.134,0.723,-0.411,-0.929,0.772,0.156,-1.185,0.274,-0.716,0.593,0.116,0.836,0.503,0.397,0.131
'0:00.407',1.145,0.786,-0.358,-0.966,0.751,0.214,-1.215,0.218,-0.745,0.618,0.189,0.903,0.547,0.447,0.134
'0:00.408',1.157,0.842,-0.315,-1,0.736,0.264,-1.254,0.15,-0.795,0.623,0.255,0.973,0.593,0.493,0.152
'0:00.409',1.165,0.889,-0.276,-1.028,0.721,0.306,-1.29,0.082,-0.853,0.628,0.329,1.046,0.643,0.531,0.173
'0:00.410',1.175,0.93,-0.245,-1.052,0.71,0.342,-1.333,0.006,-0.926,0.618,0.397,1.119,0.692,0.563,0.204
'0:00.411',1.165,0.971,-0.195,-1.069,0.68,0.388,-1.358,-0.059,-0.99,0.604,0.445,1.169,0.718,0.602,0.228
'0:00.412',1.148,1.01,-0.139,-1.079,0.643,0.435,-1.373,-0.106,-1.027,0.608,0.496,1.214,0.739,0.642,0.238
'0:00.413',1.134,1.04,-0.095,-1.087,0.615,0.472,-1.393,-0.151,-1.063,0.61,0.545,1.258,0.763,0.674,0.252
'0:00.414',1.123,1.082,-0.042,-1.103,0.583,0.52,-1.403,-0.179,-1.085,0.625,0.601,1.302,0.786,0.717,0.251
'0:00.415',1.119,1.135,0.015,-1.127,0.552,0.575,-1.427,-0.225,-1.115,0.638,0.653,1.345,0.809,0.765,0.256
'0:00.416',1.095,1.19,0.095,-1.143,0.5,0.642,-1.444,-0.283,-1.163,0.632,0.679,1.369,0.81,0.82,0.262
'0:00.417',1.065,1.233,0.169,-1.149,0.448,0.701,-1.453,-0.33,-1.218,0.605,0.685,1.379,0.799,0.864,0.269
'0:00.418',1.026,1.267,0.24,-1.147,0.393,0.754,-1.454,-0.37,-1.265,0.579,0.689,1.381,0.78,0.904,0.275
'0:00.419',0.983,1.303,0.32,-1.143,0.332,0.811,-1.45,-0.41,-1.31,0.551,0.683,1.377,0.753,0.95,0.274
'0:00.420',0.95,1.33,0.381,-1.14,0.284,0.856,-1.464,-0.469,-1.37,0.506,0.653,1.359,0.722,0.983,0.29
'0:00.421',0.919,1.347,0.427,-1.133,0.245,0.887,-1.474,-0.518,-1.425,0.461,0.614,1.333,0.684,1.004,0.308
'0:00.422',0.889,1.353,0.463,-1.121,0.213,0.908,-1.49,-0.574,-1.498,0.382,0.546,1.297,0.639,1.017,0.343
'0:00.423',0.872,1.331,0.46,-1.102,0.205,0.896,-1.515,-0.638,-1.577,0.297,0.475,1.262,0.599,1.004,0.395
'0:00.424',0.866,1.253,0.388,-1.06,0.239,0.82,-1.517,-0.657,-1.619,0.23,0.409,1.216,0.566,0.94,0.44
'0:00.425',0.848,1.163,0.315,-1.006,0.267,0.739,-1.497,-0.653,-1.649,0.147,0.308,1.145,0.51,0.873,0.477
'0:00.426',0.812,1.061,0.248,-0.937,0.282,0.654,-1.457,-0.626,-1.69,0.017,0.14,1.035,0.413,0.803,0.515
'0:00.427',0.759,0.931,0.171,-0.846,0.294,0.551,-1.401,-0.587,-1.75,-0.177,-0.119,0.872,0.27,0.715,0.565
'0:00.428',0.709,0.81,0.102,-0.76,0.303,0.457,-1.349,-0.56,-1.816,-0.371,-0.379,0.709,0.124,0.632,0.614
'0:00.429',0.669,0.715,0.045,-0.692,0.312,0.381,-1.296,-0.526,-1.855,-0.511,-0.576,0.578,0.011,0.568,0.638
'0:00.430',0.639,0.656,0.017,-0.648,0.311,0.337,-1.254,-0.496,-1.868,-0.586,-0.697,0.486,-0.068,0.532,0.643
'0:00.431',0.621,0.616,-0.005,-0.618,0.313,0.305,-1.232,-0.49,-1.881,-0.639,-0.782,0.415,-0.128,0.502,0.645
'0:00.432',0.598,0.578,-0.02,-0.588,0.309,0.279,-1.209,-0.478,-1.888,-0.688,-0.866,0.345,-0.189,0.474,0.644
'0:00.433',0.585,0.534,-0.051,-0.56,0.318,0.242,-1.185,-0.447,-1.873,-0.71,-0.921,0.29,-0.232,0.442,0.638
'0:00.434',0.582,0.494,-0.087,-0.538,0.335,0.203,-1.165,-0.414,-1.855,-0.718,-0.957,0.245,-0.261,0.409,0.63
'0:00.435',0.579,0.451,-0.128,-0.514,0.353,0.161,-1.138,-0.366,-1.817,-0.706,-0.979,0.208,-0.28,0.375,0.614
'0:00.436',0.577,0.404,-0.173,-0.49,0.375,0.116,-1.105,-0.32,-1.774,-0.688,-0.992,0.178,-0.294,0.338,0.592
'0:00.437',0.582,0.371,-0.211,-0.476,0.397,0.08,-1.08,-0.283,-1.736,-0.662,-0.989,0.163,-0.295,0.307,0.574
'0:00.438',0.592,0.34,-0.252,-0.466,0.421,0.044,-1.058,-0.237,-1.683,-0.615,-0.97,0.155,-0.286,0.279,0.549
'0:00.439',0.598,0.304,-0.293,-0.451,0.446,0.005,-1.024,-0.181,-1.627,-0.574,-0.961,0.14,-0.284,0.25,0.519
'0:00.440',0.61,0.261,-0.349,-0.435,0.479,-0.044,-0.991,-0.123,-1.575,-0.54,-0.951,0.127,-0.277,0.21,0.498
'0:00.441',0.623,0.221,-0.403,-0.422,0.513,-0.091,-0.965,-0.07,-1.524,-0.504,-0.938,0.119,-0.264,0.17,0.481
'0:00.442',0.632,0.184,-0.448,-0.408,0.54,-0.132,-0.945,-0.028,-1.486,-0.479,-0.928,0.114,-0.255,0.134,0.469
'0:00.443',0.636,0.151,-0.485,-0.395,0.561,-0.167,-0.931,-0.004,-1.459,-0.46,-0.922,0.102,-0.255,0.103,0.457
'0:00.444',0.643,0.125,-0.518,-0.385,0.581,-0.197,-0.921,0.019,-1.431,-0.436,-0.912,0.097,-0.248,0.077,0.445
'0:00.445',0.651,0.111,-0.54,-0.381,0.596,-0.215,-0.915,0.04,-1.406,-0.414,-0.898,0.098,-0.238,0.062,0.433
'0:00.446',0.654,0.107,-0.546,-0.381,0.6,-0.22,-0.91,0.054,-1.384,-0.396,-0.889,0.096,-0.235,0.06,0.422
'0:00.447',0.65,0.102,-0.549,-0.377,0.6,-0.224,-0.906,0.069,-1.365,-0.38,-0.882,0.094,-0.234,0.056,0.413
'0:00.448',0.649,0.096,-0.553,-0.372,0.601,-0.229,-0.894,0.087,-1.346,-0.364,-0.876,0.094,-0.234,0.054,0.401
'0:00.449',0.649,0.091,-0.558,-0.371,0.604,-0.234,-0.88,0.115,-1.325,-0.347,-0.867,0.096,-0.229,0.052,0.388
'0:00.450',0.653,0.093,-0.56,-0.374,0.607,-0.233,-0.868,0.141,-1.298,-0.325,-0.854,0.103,-0.219,0.05,0.374
'0:00.451',0.664,0.101,-0.562,-0.383,0.613,-0.231,-0.861,0.171,-1.265,-0.3,-0.837,0.112,-0.207,0.054,0.358
'0:00.452',0.676,0.114,-0.562,-0.395,0.619,-0.224,-0.865,0.202,-1.229,-0.27,-0.815,0.123,-0.193,0.061,0.343
'0:00.453',0.69,0.132,-0.558,-0.411,0.624,-0.213,-0.87,0.23,-1.19,-0.233,-0.791,0.139,-0.178,0.07,0.326
'0:00.454',0.709,0.149,-0.559,-0.429,0.633,-0.204,-0.884,0.258,-1.151,-0.198,-0.765,0.155,-0.16,0.08,0.315
'0:00.455',0.73,0.163,-0.567,-0.447,0.648,-0.202,-0.905,0.284,-1.117,-0.166,-0.743,0.172,-0.14,0.081,0.308
'0:00.456',0.747,0.171,-0.576,-0.46,0.661,-0.203,-0.915,0.314,-1.083,-0.138,-0.722,0.186,-0.12,0.077,0.304
'0:00.457',0.761,0.177,-0.585,-0.469,0.673,-0.203,-0.922,0.344,-1.052,-0.111,-0.704,0.197,-0.105,0.08,0.299
'0:00.458',0.773,0.18,-0.593,-0.477,0.683,-0.206,-0.925,0.37,-1.026,-0.088,-0.69,0.207,-0.09,0.079,0.297
'0:00.459',0.785,0.182,-0.603,-0.484,0.694,-0.21,-0.923,0.397,-0.997,-0.066,-0.675,0.215,-0.076,0.075,0.293
'0:00.460',0.793,0.187,-0.607,-0.49,0.7,-0.209,-0.922,0.419,-0.977,-0.046,-0.663,0.222,-0.067,0.077,0.287
'0:00.461',0.798,0.191,-0.608,-0.495,0.703,-0.208,-0.92,0.434,-0.961,-0.035,-0.655,0.227,-0.061,0.08,0.283
'0:00.462',0.804,0.196,-0.609,-0.5,0.707,-0.206,-0.92,0.45,-0.943,-0.021,-0.647,0.231,-0.056,0.083,0.279
'0:00.463',0.809,0.203,-0.606,-0.506,0.708,-0.202,-0.917,0.467,-0.923,-0.005,-0.637,0.236,-0.05,0.087,0.272
'0:00.464',0.815,0.21,-0.604,-0.512,0.709,-0.197,-0.914,0.483,-0.905,0.008,-0.629,0.241,-0.044,0.094,0.267
'0:00.465',0.819,0.216,-0.603,-0.517,0.711,-0.194,-0.911,0.499,-0.89,0.021,-0.621,0.245,-0.04,0.098,0.26
'0:00.466',0.821,0.22,-0.601,-0.52,0.711,-0.191,-0.907,0.515,-0.875,0.034,-0.615,0.247,-0.036,0.101,0.253
'0:00.467',0.824,0.221,-0.604,-0.522,0.714,-0.192,-0.903,0.53,-0.862,0.043,-0.61,0.249,-0.032,0.102,0.248
'0:00.468',0.829,0.223,-0.606,-0.526,0.717,-0.192,-0.902,0.542,-0.85,0.052,-0.603,0.252,-0.026,0.102,0.242
'0:00.469',0.833,0.224,-0.61,-0.528,0.721,-0.193,-0.898,0.554,-0.837,0.062,-0.6,0.253,-0.022,0.102,0.237
'0:00.470',0.836,0.223,-0.614,-0.529,0.725,-0.196,-0.895,0.564,-0.828,0.07,-0.598,0.254,-0.018,0.101,0.233
'0:00.471',0.837,0.223,-0.614,-0.53,0.725,-0.196,-0.893,0.572,-0.821,0.075,-0.596,0.254,-0.017,0.1,0.23
'0:00.472',0.84,0.222,-0.619,-0.531,0.729,-0.199,-0.89,0.58,-0.814,0.08,-0.592,0.254,-0.013,0.096,0.226
'0:00.473',0.845,0.219,-0.626,-0.532,0.735,-0.203,-0.889,0.589,-0.805,0.086,-0.589,0.257,-0.009,0.091,0.224
'0:00.474',0.846,0.215,-0.631,-0.53,0.738,-0.208,-0.886,0.598,-0.796,0.091,-0.587,0.257,-0.004,0.088,0.224
'0:00.475',0.846,0.209,-0.636,-0.528,0.741,-0.213,-0.885,0.605,-0.79,0.097,-0.585,0.257,-0.002,0.082,0.223
'0:00.476',0.849,0.206,-0.642,-0.528,0.746,-0.218,-0.885,0.611,-0.784,0.103,-0.583,0.259,0.002,0.079,0.222
'0:00.477',0.853,0.205,-0.647,-0.529,0.75,-0.221,-0.886,0.616,-0.779,0.106,-0.583,0.259,0.005,0.077,0.221
'0:00.478',0.854,0.203,-0.651,-0.528,0.752,-0.224,-0.887,0.617,-0.778,0.107,-0.582,0.258,0.007,0.073,0.221
'0:00.479',0.856,0.203,-0.652,-0.529,0.753,-0.225,-0.887,0.619,-0.775,0.108,-0.58,0.257,0.008,0.075,0.22
'0:00.480',0.857,0.204,-0.652,-0.53,0.754,-0.224,-0.887,0.622,-0.773,0.11,-0.581,0.257,0.008,0.076,0.218
'0:00.481',0.857,0.203,-0.653,-0.53,0.754,-0.225,-0.888,0.624,-0.77,0.111,-0.58,0.258,0.009,0.077,0.217
'0:00.482',0.858,0.204,-0.653,-0.531,0.755,-0.225,-0.889,0.626,-0.767,0.114,-0.58,0.258,0.009,0.076,0.217
'0:00.483',0.856,0.203,-0.653,-0.529,0.754,-0.226,-0.889,0.626,-0.766,0.114,-0.58,0.257,0.011,0.074,0.216
'0:00.484',0.857,0.202,-0.654,-0.529,0.755,-0.227,-0.889,0.629,-0.763,0.117,-0.579,0.257,0.011,0.073,0.216
'0:00.485',0.856,0.201,-0.654,-0.528,0.754,-0.227,-0.89,0.63,-0.761,0.118,-0.58,0.255,0.011,0.072,0.215
'0:00.486',0.854,0.2,-0.653,-0.527,0.753,-0.227,-0.889,0.632,-0.759,0.117,-0.581,0.256,0.011,0.073,0.214
'0:00.487',0.856,0.199,-0.656,-0.528,0.756,-0.229,-0.888,0.635,-0.756,0.119,-0.58,0.258,0.012,0.071,0.213
'0:00.488',0.858,0.199,-0.659,-0.528,0.758,-0.23,-0.889,0.636,-0.756,0.12,-0.578,0.258,0.013,0.07,0.214
'0:00.489',0.859,0.2,-0.659,-0.529,0.758,-0.23,-0.891,0.638,-0.754,0.12,-0.576,0.257,0.013,0.072,0.213
'0:00.490',0.861,0.2,-0.661,-0.53,0.76,-0.231,-0.89,0.639,-0.752,0.121,-0.575,0.256,0.013,0.073,0.211
'0:00.491',0.862,0.2,-0.661,-0.531,0.761,-0.231,-0.889,0.641,-0.75,0.124,-0.574,0.259,0.016,0.071,0.211
'0:00.492',0.863,0.199,-0.663,-0.531,0.762,-0.232,-0.89,0.643,-0.748,0.128,-0.573,0.26,0.017,0.07,0.211
'0:00.493',0.861,0.199,-0.662,-0.53,0.761,-0.232,-0.889,0.644,-0.747,0.129,-0.57,0.26,0.018,0.068,0.21
'0:00.494',0.862,0.201,-0.661,-0.531,0.761,-0.23,-0.889,0.645,-0.744,0.13,-0.569,0.26,0.018,0.069,0.208
'0:00.495',0.864,0.202,-0.661,-0.533,0.762,-0.23,-0.889,0.647,-0.743,0.132,-0.569,0.26,0.018,0.071,0.207
'0:00.496',0.866,0.203,-0.662,-0.535,0.763,-0.229,-0.889,0.649,-0.74,0.133,-0.567,0.26,0.019,0.07,0.208
'0:00.497',0.865,0.204,-0.661,-0.535,0.763,-0.229,-0.888,0.65,-0.738,0.134,-0.567,0.262,0.021,0.07,0.208
'0:00.498',0.862,0.202,-0.659,-0.532,0.76,-0.229,-0.888,0.651,-0.737,0.136,-0.567,0.263,0.022,0.073,0.208
'0:00.499',0.864,0.204,-0.659,-0.534,0.761,-0.228,-0.888,0.652,-0.735,0.137,-0.566,0.262,0.021,0.073,0.206
'0:00.500',0.867,0.205,-0.661,-0.536,0.764,-0.228,-0.888,0.654,-0.735,0.138,-0.566,0.264,0.022,0.07,0.207
'0:00.501',0.869,0.204,-0.665,-0.537,0.767,-0.231,-0.888,0.656,-0.733,0.139,-0.566,0.264,0.022,0.067,0.206
'0:00.502',0.871,0.204,-0.666,-0.537,0.768,-0.231,-0.888,0.658,-0.731,0.14,-0.565,0.264,0.024,0.068,0.206
'0:00.503',0.872,0.204,-0.667,-0.538,0.769,-0.231,-0.888,0.659,-0.731,0.14,-0.564,0.265,0.025,0.067,0.207
'0:00.504',0.871,0.205,-0.666,-0.538,0.768,-0.231,-0.888,0.66,-0.73,0.142,-0.564,0.265,0.024,0.069,0.206
'0:00.505',0.871,0.205,-0.666,-0.538,0.768,-0.231,-0.887,0.661,-0.728,0.142,-0.564,0.264,0.024,0.07,0.204
'0:00.506',0.872,0.203,-0.667,-0.537,0.769,-0.232,-0.888,0.661,-0.728,0.143,-0.564,0.264,0.024,0.069,0.204
'0:00.507',0.871,0.205,-0.665,-0.537,0.767,-0.231,-0.888,0.662,-0.726,0.145,-0.562,0.265,0.025,0.07,0.205
'0:00.508',0.872,0.205,-0.666,-0.539,0.769,-0.231,-0.887,0.664,-0.725,0.147,-0.56,0.265,0.026,0.069,0.205
'0:00.509',0.874,0.205,-0.668,-0.54,0.77,-0.231,-0.889,0.663,-0.723,0.148,-0.56,0.266,0.027,0.068,0.204
'0:00.510',0.872,0.205,-0.666,-0.539,0.769,-0.231,-0.889,0.664,-0.722,0.148,-0.56,0.265,0.026,0.068,0.204
'0:00.511',0.874,0.206,-0.667,-0.54,0.77,-0.231,-0.888,0.665,-0.722,0.149,-0.56,0.266,0.028,0.07,0.203
'0:00.512',0.873,0.206,-0.667,-0.539,0.769,-0.231,-0.888,0.665,-0.719,0.149,-0.558,0.267,0.028,0.071,0.201
'0:00.513',0.873,0.205,-0.667,-0.539,0.769,-0.231,-0.887,0.666,-0.719,0.151,-0.557,0.268,0.029,0.07,0.201
'0:00.514',0.875,0.205,-0.669,-0.54,0.772,-0.232,-0.888,0.667,-0.717,0.153,-0.556,0.27,0.031,0.069,0.202
'0:00.515',0.875,0.208,-0.667,-0.541,0.77,-0.23,-0.889,0.667,-0.716,0.154,-0.555,0.27,0.032,0.071,0.201
'0:00.516',0.875,0.207,-0.667,-0.541,0.77,-0.23,-0.89,0.668,-0.715,0.153,-0.555,0.271,0.033,0.07,0.202
'0:00.517',0.875,0.207,-0.667,-0.541,0.771,-0.23,-0.889,0.67,-0.713,0.154,-0.553,0.271,0.033,0.07,0.201
'0:00.518',0.875,0.208,-0.667,-0.542,0.771,-0.23,-0.888,0.671,-0.711,0.156,-0.552,0.272,0.033,0.071,0.201
'0:00.519',0.877,0.207,-0.67,-0.543,0.773,-0.231,-0.887,0.672,-0.71,0.157,-0.55,0.273,0.034,0.07,0.201
'0:00.520',0.878,0.208,-0.67,-0.543,0.773,-0.231,-0.887,0.674,-0.709,0.159,-0.549,0.274,0.035,0.071,0.2
'0:00.521',0.879,0.208,-0.671,-0.544,0.775,-0.232,-0.888,0.674,-0.708,0.16,-0.548,0.274,0.035,0.07,0.2
'0:00.522',0.88,0.208,-0.672,-0.544,0.776,-0.232,-0.888,0.674,-0.708,0.161,-0.546,0.276,0.036,0.07,0.2
'0:00.523',0.881,0.208,-0.673,-0.545,0.777,-0.233,-0.888,0.675,-0.707,0.163,-0.544,0.277,0.037,0.069,0.199
'0:00.524',0.881,0.207,-0.673,-0.544,0.777,-0.233,-0.888,0.676,-0.706,0.166,-0.543,0.278,0.04,0.07,0.198
'0:00.525',0.88,0.206,-0.674,-0.543,0.777,-0.234,-0.888,0.677,-0.705,0.166,-0.543,0.279,0.04,0.07,0.199
'0:00.526',0.882,0.206,-0.675,-0.544,0.778,-0.234,-0.888,0.678,-0.703,0.167,-0.541,0.28,0.042,0.069,0.2
'0:00.527',0.883,0.206,-0.677,-0.545,0.78,-0.235,-0.888,0.679,-0.702,0.168,-0.539,0.282,0.044,0.068,0.199
'0:00.528',0.884,0.206,-0.678,-0.545,0.781,-0.236,-0.887,0.68,-0.701,0.168,-0.538,0.283,0.044,0.069,0.198
'0:00.529',0.885,0.209,-0.676,-0.547,0.78,-0.234,-0.888,0.681,-0.7,0.17,-0.537,0.283,0.044,0.07,0.198
'0:00.530',0.883,0.209,-0.674,-0.546,0.778,-0.233,-0.889,0.683,-0.7,0.17,-0.538,0.283,0.044,0.07,0.198
'0:00.531',0.881,0.208,-0.673,-0.545,0.777,-0.233,-0.888,0.683,-0.699,0.17,-0.537,0.282,0.044,0.071,0.198
'0:00.532',0.884,0.209,-0.675,-0.547,0.779,-0.233,-0.889,0.683,-0.698,0.172,-0.536,0.283,0.044,0.071,0.198
'0:00.533',0.885,0.21,-0.675,-0.548,0.78,-0.233,-0.89,0.684,-0.698,0.173,-0.534,0.284,0.045,0.071,0.197
'0:00.534',0.884,0.209,-0.676,-0.547,0.78,-0.234,-0.89,0.685,-0.697,0.176,-0.533,0.285,0.047,0.07,0.197
'0:00.535',0.887,0.208,-0.678,-0.548,0.782,-0.235,-0.892,0.685,-0.695,0.177,-0.533,0.286,0.049,0.07,0.197
'0:00.536',0.885,0.209,-0.676,-0.547,0.78,-0.234,-0.891,0.684,-0.695,0.177,-0.533,0.286,0.049,0.072,0.197
'0:00.537',0.884,0.21,-0.673,-0.547,0.778,-0.232,-0.892,0.685,-0.694,0.179,-0.533,0.287,0.049,0.073,0.197
'0:00.538',0.887,0.212,-0.674,-0.55,0.78,-0.231,-0.892,0.686,-0.693,0.18,-0.533,0.287,0.048,0.072,0.197
'0:00.539',0.888,0.214,-0.675,-0.551,0.781,-0.231,-0.892,0.686,-0.692,0.181,-0.532,0.286,0.05,0.072,0.196
'0:00.540',0.885,0.211,-0.673,-0.548,0.779,-0.231,-0.891,0.688,-0.691,0.182,-0.531,0.286,0.05,0.072,0.195
'0:00.541',0.885,0.21,-0.675,-0.548,0.78,-0.233,-0.89,0.689,-0.691,0.183,-0.53,0.286,0.051,0.072,0.194
'0:00.542',0.891,0.213,-0.678,-0.552,0.784,-0.233,-0.891,0.689,-0.69,0.184,-0.529,0.287,0.051,0.071,0.193
'0:00.543',0.888,0.213,-0.675,-0.551,0.781,-0.231,-0.891,0.69,-0.69,0.184,-0.528,0.288,0.052,0.07,0.193
'0:00.544',0.886,0.213,-0.673,-0.549,0.779,-0.23,-0.89,0.692,-0.69,0.185,-0.527,0.289,0.052,0.073,0.192
'0:00.545',0.887,0.215,-0.672,-0.551,0.78,-0.229,-0.89,0.692,-0.689,0.185,-0.526,0.289,0.051,0.075,0.194
'0:00.546',0.888,0.215,-0.674,-0.552,0.781,-0.23,-0.89,0.693,-0.686,0.186,-0.525,0.291,0.052,0.074,0.193
'0:00.547',0.891,0.214,-0.676,-0.553,0.783,-0.231,-0.889,0.694,-0.685,0.186,-0.524,0.292,0.053,0.073,0.192
'0:00.548',0.889,0.214,-0.675,-0.552,0.782,-0.231,-0.889,0.695,-0.684,0.187,-0.523,0.291,0.054,0.074,0.193
'0:00.549',0.889,0.215,-0.674,-0.552,0.781,-0.23,-0.891,0.694,-0.684,0.188,-0.524,0.291,0.054,0.074,0.192
'0:00.550',0.89,0.217,-0.672,-0.554,0.781,-0.228,-0.892,0.693,-0.684,0.188,-0.523,0.291,0.053,0.075,0.192
'0:00.551',0.891,0.218,-0.672,-0.555,0.782,-0.227,-0.891,0.694,-0.683,0.188,-0.522,0.291,0.053,0.079,0.192
'0:00.552',0.892,0.22,-0.672,-0.556,0.782,-0.227,-0.892,0.695,-0.682,0.188,-0.522,0.292,0.056,0.078,0.191
'0:00.553',0.892,0.22,-0.672,-0.556,0.782,-0.227,-0.892,0.697,-0.679,0.191,-0.52,0.294,0.056,0.076,0.19
'0:00.554',0.893,0.221,-0.673,-0.557,0.782,-0.227,-0.891,0.698,-0.679,0.192,-0.519,0.294,0.056,0.076,0.19
'0:00.555',0.895,0.222,-0.673,-0.558,0.784,-0.226,-0.891,0.699,-0.678,0.194,-0.517,0.294,0.058,0.077,0.19
'0:00.556',0.895,0.222,-0.674,-0.558,0.784,-0.227,-0.892,0.7,-0.676,0.197,-0.515,0.296,0.059,0.077,0.19
'0:00.557',0.893,0.221,-0.673,-0.557,0.783,-0.226,-0.892,0.701,-0.675,0.198,-0.514,0.296,0.059,0.078,0.19
'0:00.558',0.895,0.223,-0.672,-0.559,0.783,-0.225,-0.893,0.702,-0.674,0.199,-0.513,0.297,0.06,0.078,0.191
'0:00.559',0.894,0.223,-0.672,-0.558,0.783,-0.225,-0.892,0.703,-0.673,0.201,-0.511,0.299,0.061,0.078,0.19
'0:00.560',0.893,0.223,-0.67,-0.558,0.781,-0.224,-0.892,0.705,-0.671,0.203,-0.508,0.301,0.063,0.081,0.19
'0:00.561',0.893,0.224,-0.669,-0.558,0.781,-0.223,-0.891,0.707,-0.668,0.205,-0.505,0.302,0.062,0.082,0.189
'0:00.562',0.895,0.224,-0.672,-0.56,0.783,-0.224,-0.892,0.707,-0.668,0.206,-0.504,0.302,0.063,0.08,0.188
'0:00.563',0.898,0.226,-0.672,-0.562,0.785,-0.223,-0.894,0.707,-0.667,0.206,-0.503,0.303,0.065,0.08,0.189
'0:00.564',0.898,0.228,-0.671,-0.564,0.784,-0.222,-0.895,0.709,-0.667,0.208,-0.501,0.303,0.066,0.083,0.189
'0:00.565',0.898,0.228,-0.67,-0.564,0.784,-0.221,-0.895,0.709,-0.666,0.21,-0.499,0.306,0.067,0.084,0.188
'0:00.566',0.899,0.228,-0.671,-0.564,0.785,-0.222,-0.894,0.71,-0.663,0.212,-0.498,0.306,0.069,0.083,0.187
'0:00.567',0.9,0.229,-0.671,-0.565,0.785,-0.222,-0.895,0.711,-0.663,0.212,-0.497,0.308,0.071,0.083,0.186
'0:00.568',0.901,0.231,-0.67,-0.567,0.785,-0.22,-0.896,0.711,-0.662,0.213,-0.497,0.309,0.071,0.085,0.186
'0:00.569',0.902,0.232,-0.67,-0.568,0.786,-0.218,-0.895,0.712,-0.66,0.214,-0.497,0.309,0.072,0.087,0.186
'0:00.570',0.901,0.232,-0.669,-0.567,0.785,-0.219,-0.896,0.712,-0.659,0.215,-0.496,0.31,0.072,0.086,0.185
'0:00.571',0.901,0.231,-0.671,-0.566,0.786,-0.221,-0.897,0.712,-0.659,0.217,-0.494,0.31,0.072,0.085,0.184
'0:00.572',0.902,0.231,-0.671,-0.567,0.787,-0.22,-0.898,0.713,-0.658,0.217,-0.493,0.309,0.073,0.085,0.184
'0:00.573',0.902,0.231,-0.671,-0.567,0.786,-0.221,-0.898,0.713,-0.657,0.217,-0.493,0.309,0.073,0.085,0.185
'0:00.574',0.903,0.231,-0.673,-0.568,0.788,-0.221,-0.899,0.713,-0.656,0.218,-0.493,0.311,0.074,0.085,0.184
'0:00.575',0.902,0.232,-0.67,-0.567,0.786,-0.22,-0.899,0.713,-0.656,0.22,-0.492,0.312,0.074,0.086,0.183
'0:00.576',0.899,0.231,-0.668,-0.565,0.783,-0.219,-0.898,0.714,-0.655,0.221,-0.491,0.311,0.075,0.088,0.184
'0:00.577',0.9,0.231,-0.67,-0.566,0.785,-0.22,-0.897,0.715,-0.653,0.221,-0.491,0.314,0.076,0.089,0.184
'0:00.578',0.902,0.233,-0.669,-0.568,0.785,-0.218,-0.897,0.716,-0.654,0.221,-0.49,0.314,0.076,0.089,0.182
'0:00.579',0.903,0.236,-0.667,-0.57,0.785,-0.215,-0.898,0.716,-0.651,0.222,-0.488,0.316,0.078,0.092,0.182
'0:00.580',0.907,0.237,-0.67,-0.573,0.788,-0.216,-0.898,0.717,-0.649,0.225,-0.486,0.317,0.08,0.092,0.182
'0:00.581',0.908,0.237,-0.671,-0.573,0.789,-0.217,-0.898,0.718,-0.647,0.228,-0.483,0.318,0.082,0.092,0.182
'0:00.582',0.908,0.238,-0.67,-0.573,0.788,-0.216,-0.898,0.719,-0.645,0.23,-0.482,0.32,0.083,0.091,0.18
'0:00.583',0.91,0.238,-0.672,-0.574,0.79,-0.217,-0.899,0.719,-0.645,0.232,-0.48,0.32,0.083,0.091,0.179
'0:00.584',0.908,0.238,-0.669,-0.574,0.788,-0.216,-0.899,0.72,-0.643,0.233,-0.478,0.321,0.085,0.092,0.179
'0:00.585',0.91,0.239,-0.671,-0.575,0.79,-0.215,-0.9,0.722,-0.641,0.234,-0.476,0.322,0.085,0.092,0.178
'0:00.586',0.911,0.239,-0.672,-0.576,0.791,-0.216,-0.9,0.723,-0.64,0.236,-0.474,0.324,0.086,0.095,0.178
'0:00.587',0.909,0.241,-0.668,-0.575,0.788,-0.213,-0.899,0.725,-0.639,0.238,-0.474,0.325,0.086,0.098,0.177
'0:00.588',0.91,0.243,-0.667,-0.577,0.788,-0.212,-0.898,0.726,-0.636,0.239,-0.472,0.326,0.086,0.097,0.177
'0:00.589',0.912,0.245,-0.667,-0.579,0.789,-0.211,-0.898,0.727,-0.633,0.241,-0.471,0.327,0.087,0.098,0.177
'0:00.590',0.914,0.247,-0.667,-0.581,0.791,-0.21,-0.9,0.729,-0.633,0.243,-0.47,0.327,0.087,0.098,0.176
'0:00.591',0.915,0.247,-0.668,-0.582,0.791,-0.21,-0.901,0.73,-0.631,0.244,-0.468,0.328,0.09,0.098,0.177
'0:00.592',0.915,0.245,-0.67,-0.581,0.792,-0.212,-0.901,0.73,-0.629,0.247,-0.466,0.329,0.092,0.096,0.177
'0:00.593',0.915,0.246,-0.669,-0.581,0.792,-0.212,-0.902,0.731,-0.627,0.248,-0.466,0.33,0.092,0.098,0.177
'0:00.594',0.914,0.248,-0.666,-0.582,0.79,-0.209,-0.902,0.732,-0.625,0.251,-0.464,0.332,0.093,0.099,0.177
'0:00.595',0.917,0.249,-0.667,-0.584,0.791,-0.208,-0.902,0.734,-0.623,0.252,-0.462,0.332,0.095,0.099,0.176
'0:00.596',0.919,0.254,-0.665,-0.587,0.792,-0.206,-0.902,0.735,-0.622,0.253,-0.462,0.333,0.096,0.103,0.176
'0:00.597',0.92,0.256,-0.664,-0.589,0.792,-0.204,-0.904,0.736,-0.62,0.255,-0.459,0.335,0.098,0.103,0.175
'0:00.598',0.923,0.257,-0.666,-0.591,0.795,-0.205,-0.904,0.738,-0.618,0.259,-0.457,0.336,0.099,0.103,0.175
'0:00.599',0.921,0.257,-0.664,-0.59,0.792,-0.203,-0.905,0.739,-0.615,0.26,-0.454,0.337,0.099,0.1,0.174
'0:00.600',0.922,0.259,-0.664,-0.591,0.793,-0.203,-0.905,0.739,-0.614,0.261,-0.454,0.337,0.1,0.103,0.173
'0:00.601',0.927,0.261,-0.666,-0.594,0.796,-0.203,-0.905,0.741,-0.613,0.264,-0.452,0.339,0.102,0.106,0.172
'0:00.602',0.924,0.261,-0.663,-0.593,0.794,-0.202,-0.905,0.743,-0.611,0.266,-0.449,0.341,0.103,0.105,0.17
'0:00.603',0.926,0.262,-0.664,-0.594,0.795,-0.201,-0.905,0.744,-0.61,0.269,-0.447,0.343,0.105,0.107,0.17
'0:00.604',0.927,0.263,-0.664,-0.595,0.795,-0.201,-0.906,0.745,-0.608,0.271,-0.445,0.344,0.107,0.108,0.17
'0:00.605',0.927,0.265,-0.663,-0.597,0.795,-0.2,-0.906,0.747,-0.607,0.273,-0.442,0.345,0.11,0.11,0.169
'0:00.606',0.93,0.265,-0.665,-0.598,0.797,-0.201,-0.906,0.749,-0.605,0.275,-0.439,0.346,0.112,0.109,0.168
'0:00.607',0.932,0.266,-0.666,-0.599,0.798,-0.2,-0.905,0.75,-0.601,0.277,-0.435,0.349,0.115,0.11,0.168
'0:00.608',0.932,0.267,-0.666,-0.6,0.799,-0.2,-0.905,0.75,-0.6,0.28,-0.432,0.353,0.118,0.11,0.168
'0:00.609',0.932,0.267,-0.665,-0.6,0.798,-0.2,-0.907,0.751,-0.598,0.282,-0.43,0.355,0.12,0.113,0.168
'0:00.610',0.932,0.269,-0.663,-0.601,0.798,-0.198,-0.907,0.754,-0.594,0.286,-0.427,0.358,0.122,0.115,0.167
'0:00.611',0.932,0.27,-0.662,-0.601,0.797,-0.197,-0.907,0.755,-0.591,0.288,-0.423,0.359,0.123,0.114,0.165
'0:00.612',0.932,0.27,-0.662,-0.601,0.797,-0.197,-0.907,0.758,-0.589,0.292,-0.419,0.362,0.124,0.115,0.164
'0:00.613',0.934,0.272,-0.663,-0.604,0.798,-0.196,-0.907,0.76,-0.587,0.295,-0.416,0.364,0.127,0.114,0.164
'0:00.614',0.936,0.273,-0.663,-0.605,0.799,-0.195,-0.907,0.762,-0.584,0.298,-0.413,0.366,0.129,0.115,0.163
'0:00.615',0.937,0.273,-0.663,-0.605,0.8,-0.196,-0.906,0.765,-0.58,0.301,-0.41,0.369,0.13,0.116,0.162
'0:00.616',0.939,0.276,-0.663,-0.608,0.801,-0.194,-0.905,0.768,-0.576,0.305,-0.406,0.372,0.132,0.116,0.16
'0:00.617',0.94,0.276,-0.663,-0.608,0.801,-0.194,-0.907,0.769,-0.574,0.307,-0.403,0.376,0.134,0.117,0.159
'0:00.618',0.942,0.277,-0.665,-0.61,0.803,-0.194,-0.907,0.771,-0.57,0.309,-0.401,0.377,0.136,0.118,0.159
'0:00.619',0.945,0.278,-0.667,-0.612,0.806,-0.195,-0.905,0.773,-0.566,0.312,-0.397,0.379,0.137,0.118,0.158
'0:00.620',0.945,0.278,-0.666,-0.611,0.805,-0.195,-0.905,0.775,-0.564,0.315,-0.394,0.381,0.139,0.117,0.157
'0:00.621',0.946,0.28,-0.665,-0.613,0.805,-0.193,-0.906,0.777,-0.561,0.318,-0.393,0.383,0.14,0.119,0.155
'0:00.622',0.948,0.281,-0.666,-0.615,0.806,-0.193,-0.905,0.78,-0.558,0.322,-0.389,0.387,0.142,0.119,0.155
'0:00.623',0.951,0.282,-0.668,-0.617,0.809,-0.193,-0.906,0.782,-0.555,0.325,-0.386,0.388,0.145,0.119,0.153
'0:00.624',0.953,0.284,-0.669,-0.619,0.81,-0.192,-0.908,0.784,-0.552,0.328,-0.383,0.388,0.146,0.121,0.152
'0:00.625',0.953,0.284,-0.668,-0.619,0.81,-0.192,-0.907,0.786,-0.55,0.331,-0.379,0.391,0.148,0.119,0.152
'0:00.626',0.952,0.286,-0.666,-0.619,0.808,-0.19,-0.908,0.787,-0.548,0.333,-0.377,0.393,0.15,0.123,0.152
'0:00.627',0.953,0.288,-0.664,-0.621,0.808,-0.189,-0.908,0.79,-0.545,0.336,-0.374,0.395,0.152,0.126,0.15
'0:00.628',0.953,0.29,-0.662,-0.622,0.807,-0.186,-0.907,0.791,-0.542,0.338,-0.371,0.397,0.154,0.126,0.148
'0:00.629',0.954,0.293,-0.66,-0.624,0.807,-0.183,-0.909,0.792,-0.541,0.34,-0.369,0.399,0.157,0.128,0.148
'0:00.630',0.959,0.295,-0.663,-0.627,0.811,-0.184,-0.91,0.795,-0.537,0.344,-0.365,0.401,0.16,0.127,0.147
'0:00.631',0.958,0.297,-0.661,-0.628,0.809,-0.182,-0.912,0.797,-0.535,0.347,-0.363,0.403,0.163,0.13,0.148
'0:00.632',0.959,0.298,-0.661,-0.628,0.809,-0.181,-0.912,0.799,-0.533,0.351,-0.359,0.406,0.166,0.131,0.147
'0:00.633',0.963,0.302,-0.661,-0.632,0.811,-0.179,-0.914,0.802,-0.528,0.355,-0.355,0.409,0.169,0.133,0.146
'0:00.634',0.965,0.305,-0.659,-0.635,0.812,-0.177,-0.915,0.804,-0.526,0.358,-0.352,0.411,0.172,0.136,0.145
'0:00.635',0.965,0.307,-0.658,-0.636,0.811,-0.175,-0.914,0.807,-0.523,0.361,-0.347,0.414,0.173,0.14,0.143
'0:00.636',0.968,0.311,-0.656,-0.64,0.812,-0.172,-0.915,0.811,-0.518,0.364,-0.345,0.416,0.177,0.141,0.142
'0:00.637',0.971,0.313,-0.658,-0.642,0.815,-0.172,-0.916,0.812,-0.516,0.368,-0.342,0.42,0.18,0.141,0.141
'0:00.638',0.971,0.317,-0.654,-0.644,0.812,-0.169,-0.916,0.816,-0.513,0.371,-0.337,0.422,0.182,0.147,0.141
'0:00.639',0.976,0.323,-0.653,-0.649,0.815,-0.166,-0.916,0.819,-0.508,0.377,-0.333,0.425,0.186,0.145,0.138
'0:00.640',0.98,0.326,-0.654,-0.653,0.817,-0.164,-0.918,0.82,-0.503,0.381,-0.329,0.428,0.19,0.147,0.137
'0:00.641',0.979,0.327,-0.652,-0.653,0.815,-0.163,-0.918,0.823,-0.499,0.384,-0.325,0.431,0.192,0.15,0.136
'0:00.642',0.98,0.328,-0.651,-0.654,0.816,-0.162,-0.918,0.825,-0.494,0.388,-0.321,0.435,0.195,0.151,0.135
'0:00.643',0.982,0.331,-0.651,-0.656,0.816,-0.16,-0.919,0.828,-0.492,0.393,-0.316,0.437,0.2,0.155,0.133
'0:00.644',0.984,0.333,-0.65,-0.658,0.817,-0.159,-0.918,0.831,-0.486,0.398,-0.31,0.441,0.203,0.153,0.13
'0:00.645',0.986,0.336,-0.65,-0.661,0.818,-0.158,-0.92,0.834,-0.481,0.403,-0.305,0.445,0.207,0.157,0.129
'0:00.646',0.988,0.339,-0.649,-0.663,0.818,-0.155,-0.921,0.837,-0.477,0.408,-0.301,0.449,0.21,0.161,0.128
'0:00.647',0.99,0.343,-0.648,-0.666,0.819,-0.152,-0.922,0.839,-0.473,0.411,-0.298,0.451,0.212,0.162,0.127
'0:00.648',0.993,0.345,-0.647,-0.669,0.82,-0.15,-0.924,0.841,-0.469,0.416,-0.292,0.455,0.216,0.166,0.124
'0:00.649',0.997,0.35,-0.646,-0.673,0.821,-0.148,-0.925,0.844,-0.465,0.42,-0.288,0.46,0.22,0.164,0.123
'0:00.650',0.999,0.354,-0.644,-0.677,0.822,-0.145,-0.927,0.846,-0.461,0.425,-0.282,0.464,0.223,0.166,0.123
'0:00.651',1.002,0.357,-0.645,-0.68,0.824,-0.144,-0.926,0.848,-0.456,0.429,-0.276,0.469,0.227,0.17,0.121
'0:00.652',1.004,0.359,-0.645,-0.682,0.825,-0.143,-0.925,0.852,-0.451,0.436,-0.269,0.475,0.231,0.17,0.12
'0:00.653',1.006,0.361,-0.644,-0.684,0.825,-0.141,-0.925,0.856,-0.447,0.443,-0.263,0.48,0.234,0.172,0.117
'0:00.654',1.01,0.365,-0.644,-0.688,0.827,-0.14,-0.926,0.859,-0.443,0.448,-0.257,0.484,0.238,0.173,0.116
'0:00.655',1.012,0.369,-0.644,-0.691,0.828,-0.138,-0.927,0.861,-0.438,0.455,-0.249,0.488,0.243,0.174,0.114
'0:00.656',1.014,0.371,-0.642,-0.693,0.828,-0.136,-0.929,0.864,-0.435,0.462,-0.243,0.493,0.248,0.177,0.112
'0:00.657',1.015,0.371,-0.644,-0.694,0.83,-0.137,-0.929,0.867,-0.429,0.467,-0.235,0.499,0.253,0.179,0.11
'0:00.658',1.021,0.376,-0.645,-0.699,0.833,-0.135,-0.93,0.87,-0.424,0.472,-0.23,0.504,0.258,0.181,0.109
'0:00.659',1.024,0.381,-0.642,-0.703,0.833,-0.131,-0.93,0.873,-0.42,0.479,-0.222,0.51,0.262,0.183,0.107
'0:00.660',1.026,0.383,-0.642,-0.705,0.834,-0.13,-0.931,0.874,-0.416,0.484,-0.215,0.515,0.266,0.184,0.106
'0:00.661',1.031,0.39,-0.641,-0.711,0.836,-0.126,-0.933,0.876,-0.411,0.489,-0.208,0.52,0.272,0.189,0.105
'0:00.662',1.034,0.393,-0.642,-0.714,0.838,-0.124,-0.934,0.88,-0.406,0.494,-0.201,0.526,0.276,0.19,0.103
'0:00.663',1.034,0.393,-0.641,-0.714,0.838,-0.124,-0.933,0.882,-0.401,0.5,-0.194,0.532,0.281,0.191,0.102
'0:00.664',1.042,0.402,-0.64,-0.722,0.841,-0.119,-0.935,0.885,-0.396,0.507,-0.187,0.539,0.285,0.196,0.101
'0:00.665',1.044,0.407,-0.637,-0.726,0.841,-0.115,-0.936,0.888,-0.393,0.51,-0.18,0.543,0.288,0.198,0.101
'0:00.666',1.046,0.412,-0.634,-0.729,0.84,-0.111,-0.938,0.889,-0.389,0.515,-0.173,0.548,0.292,0.201,0.099
'0:00.667',1.048,0.414,-0.634,-0.732,0.841,-0.11,-0.94,0.891,-0.385,0.521,-0.168,0.553,0.297,0.204,0.096
'0:00.668',1.05,0.416,-0.634,-0.734,0.842,-0.109,-0.941,0.892,-0.382,0.525,-0.162,0.557,0.302,0.205,0.095
'0:00.669',1.054,0.422,-0.631,-0.738,0.842,-0.105,-0.944,0.892,-0.379,0.531,-0.154,0.565,0.308,0.209,0.094
'0:00.670',1.055,0.427,-0.628,-0.742,0.842,-0.101,-0.946,0.895,-0.374,0.537,-0.146,0.571,0.313,0.213,0.092
'0:00.671',1.059,0.431,-0.628,-0.746,0.843,-0.099,-0.949,0.895,-0.372,0.541,-0.141,0.575,0.318,0.216,0.091
'0:00.672',1.06,0.434,-0.626,-0.748,0.843,-0.096,-0.951,0.896,-0.368,0.547,-0.135,0.581,0.323,0.22,0.088
'0:00.673',1.063,0.438,-0.625,-0.751,0.844,-0.093,-0.951,0.898,-0.363,0.553,-0.127,0.588,0.329,0.222,0.088
'0:00.674',1.069,0.445,-0.625,-0.757,0.847,-0.09,-0.952,0.9,-0.359,0.559,-0.119,0.595,0.334,0.224,0.087
'0:00.675',1.07,0.449,-0.622,-0.76,0.846,-0.086,-0.952,0.901,-0.357,0.564,-0.112,0.6,0.339,0.228,0.086
'0:00.676',1.073,0.453,-0.62,-0.763,0.846,-0.084,-0.955,0.902,-0.353,0.569,-0.104,0.605,0.343,0.232,0.085
'0:00.677',1.078,0.458,-0.62,-0.768,0.849,-0.081,-0.957,0.902,-0.351,0.574,-0.098,0.61,0.348,0.234,0.084
'0:00.678',1.082,0.463,-0.62,-0.773,0.851,-0.078,-0.959,0.903,-0.347,0.578,-0.091,0.616,0.354,0.235,0.083
'0:00.679',1.083,0.467,-0.617,-0.775,0.85,-0.075,-0.961,0.905,-0.344,0.583,-0.084,0.622,0.359,0.237,0.081
'0:00.680',1.085,0.47,-0.615,-0.778,0.85,-0.072,-0.962,0.907,-0.34,0.589,-0.076,0.628,0.364,0.241,0.081
'0:00.681',1.089,0.475,-0.614,-0.782,0.851,-0.069,-0.964,0.907,-0.338,0.593,-0.07,0.633,0.37,0.246,0.08
'0:00.682',1.091,0.479,-0.611,-0.785,0.85,-0.066,-0.966,0.908,-0.336,0.598,-0.064,0.638,0.374,0.248,0.078
'0:00.683',1.091,0.483,-0.608,-0.787,0.849,-0.062,-0.967,0.909,-0.334,0.602,-0.057,0.643,0.378,0.251,0.076
'0:00.684',1.094,0.488,-0.606,-0.791,0.85,-0.059,-0.968,0.908,-0.331,0.606,-0.05,0.648,0.383,0.254,0.074
'0:00.685',1.097,0.492,-0.605,-0.795,0.851,-0.057,-0.97,0.911,-0.328,0.612,-0.043,0.655,0.389,0.257,0.073
'0:00.686',1.101,0.497,-0.605,-0.799,0.853,-0.054,-0.972,0.911,-0.327,0.617,-0.036,0.661,0.394,0.259,0.072
'0:00.687',1.105,0.503,-0.603,-0.804,0.854,-0.05,-0.973,0.91,-0.324,0.622,-0.029,0.666,0.399,0.263,0.072
'0:00.688',1.108,0.506,-0.602,-0.807,0.855,-0.048,-0.976,0.911,-0.321,0.626,-0.022,0.672,0.403,0.265,0.07
'0:00.689',1.109,0.51,-0.6,-0.81,0.855,-0.044,-0.976,0.912,-0.32,0.629,-0.015,0.678,0.409,0.27,0.07
'0:00.690',1.11,0.513,-0.598,-0.812,0.854,-0.042,-0.977,0.912,-0.316,0.634,-0.009,0.684,0.414,0.271,0.069
'0:00.691',1.111,0.516,-0.596,-0.815,0.854,-0.04,-0.979,0.911,-0.315,0.641,-0.003,0.69,0.417,0.272,0.068
'0:00.692',1.113,0.52,-0.593,-0.817,0.853,-0.036,-0.981,0.911,-0.314,0.645,0.004,0.695,0.422,0.276,0.067
'0:00.693',1.116,0.524,-0.592,-0.821,0.854,-0.034,-0.984,0.91,-0.313,0.648,0.009,0.7,0.426,0.28,0.067
'0:00.694',1.12,0.53,-0.591,-0.826,0.856,-0.03,-0.985,0.911,-0.311,0.65,0.018,0.704,0.43,0.282,0.067
'0:00.695',1.121,0.536,-0.586,-0.83,0.854,-0.025,-0.986,0.908,-0.309,0.653,0.022,0.709,0.434,0.285,0.066
'0:00.696',1.123,0.539,-0.585,-0.832,0.854,-0.023,-0.988,0.908,-0.308,0.658,0.029,0.716,0.439,0.288,0.065
'0:00.697',1.127,0.543,-0.584,-0.835,0.855,-0.021,-0.991,0.907,-0.308,0.661,0.035,0.723,0.443,0.291,0.065
'0:00.698',1.131,0.548,-0.584,-0.84,0.858,-0.018,-0.995,0.905,-0.308,0.661,0.038,0.726,0.448,0.294,0.065
'0:00.699',1.133,0.553,-0.581,-0.844,0.857,-0.014,-0.996,0.905,-0.308,0.662,0.043,0.731,0.452,0.298,0.065
'0:00.700',1.133,0.558,-0.576,-0.847,0.855,-0.009,-0.998,0.902,-0.308,0.665,0.05,0.735,0.455,0.301,0.064
'0:00.701',1.136,0.559,-0.577,-0.848,0.857,-0.009,-1.002,0.899,-0.308,0.667,0.056,0.741,0.461,0.301,0.064
'0:00.702',1.137,0.562,-0.575,-0.85,0.856,-0.006,-1.004,0.897,-0.308,0.669,0.06,0.746,0.464,0.304,0.065
'0:00.703',1.135,0.568,-0.568,-0.852,0.852,-0.001,-1.006,0.894,-0.31,0.671,0.065,0.75,0.468,0.31,0.065
'0:00.704',1.137,0.572,-0.566,-0.855,0.852,0.003,-1.008,0.891,-0.311,0.673,0.07,0.756,0.472,0.312,0.065
'0:00.705',1.139,0.575,-0.566,-0.858,0.853,0.004,-1.009,0.888,-0.312,0.674,0.074,0.76,0.474,0.315,0.065
'0:00.706',1.141,0.578,-0.565,-0.86,0.853,0.006,-1.012,0.885,-0.312,0.676,0.08,0.765,0.478,0.316,0.064
'0:00.707',1.142,0.582,-0.56,-0.863,0.852,0.011,-1.014,0.882,-0.315,0.677,0.083,0.768,0.481,0.318,0.065
'0:00.708',1.141,0.583,-0.559,-0.863,0.85,0.012,-1.015,0.878,-0.317,0.678,0.086,0.772,0.483,0.321,0.066
'0:00.709',1.143,0.584,-0.56,-0.865,0.852,0.012,-1.016,0.876,-0.318,0.68,0.09,0.775,0.485,0.322,0.066
'0:00.710',1.147,0.591,-0.556,-0.87,0.852,0.018,-1.018,0.871,-0.321,0.68,0.093,0.779,0.488,0.326,0.066
'0:00.711',1.151,0.596,-0.555,-0.874,0.853,0.02,-1.02,0.868,-0.322,0.681,0.097,0.782,0.491,0.328,0.065
'0:00.712',1.148,0.597,-0.551,-0.873,0.85,0.022,-1.02,0.864,-0.324,0.682,0.099,0.783,0.491,0.329,0.065
'0:00.713',1.148,0.6,-0.549,-0.875,0.849,0.025,-1.021,0.861,-0.327,0.681,0.1,0.786,0.492,0.331,0.067
'0:00.714',1.149,0.603,-0.547,-0.876,0.848,0.028,-1.022,0.857,-0.33,0.682,0.102,0.788,0.493,0.332,0.067
'0:00.715',1.148,0.606,-0.543,-0.877,0.846,0.032,-1.025,0.852,-0.333,0.68,0.102,0.79,0.494,0.334,0.066
'0:00.716',1.149,0.608,-0.542,-0.879,0.846,0.033,-1.025,0.848,-0.337,0.678,0.103,0.79,0.494,0.336,0.068
'0:00.717',1.152,0.611,-0.541,-0.882,0.847,0.035,-1.026,0.843,-0.341,0.676,0.103,0.79,0.493,0.338,0.068
'0:00.718',1.151,0.613,-0.54,-0.882,0.846,0.036,-1.028,0.839,-0.344,0.674,0.102,0.791,0.493,0.339,0.069
'0:00.719',1.149,0.613,-0.537,-0.881,0.843,0.037,-1.028,0.837,-0.349,0.671,0.101,0.791,0.491,0.34,0.07
'0:00.720',1.147,0.614,-0.534,-0.88,0.841,0.04,-1.028,0.831,-0.354,0.669,0.1,0.79,0.489,0.341,0.071
'0:00.721',1.145,0.613,-0.532,-0.879,0.839,0.041,-1.03,0.826,-0.358,0.667,0.099,0.788,0.487,0.341,0.071
'0:00.722',1.145,0.613,-0.532,-0.879,0.839,0.041,-1.03,0.823,-0.36,0.664,0.097,0.788,0.485,0.343,0.072
'0:00.723',1.143,0.613,-0.531,-0.878,0.838,0.041,-1.028,0.819,-0.363,0.66,0.095,0.787,0.483,0.342,0.073
'0:00.724',1.141,0.611,-0.53,-0.876,0.836,0.04,-1.028,0.814,-0.369,0.656,0.091,0.785,0.479,0.339,0.074
'0:00.725',1.136,0.609,-0.528,-0.873,0.832,0.04,-1.028,0.808,-0.377,0.65,0.085,0.781,0.476,0.339,0.076
'0:00.726',1.133,0.607,-0.525,-0.87,0.829,0.041,-1.028,0.802,-0.383,0.643,0.08,0.776,0.47,0.34,0.076
'0:00.727',1.131,0.603,-0.529,-0.868,0.831,0.037,-1.028,0.798,-0.388,0.638,0.074,0.773,0.466,0.338,0.077
'0:00.728',1.128,0.598,-0.53,-0.864,0.829,0.034,-1.026,0.794,-0.393,0.634,0.07,0.768,0.462,0.337,0.079
'0:00.729',1.123,0.596,-0.528,-0.86,0.826,0.034,-1.026,0.789,-0.399,0.628,0.062,0.763,0.457,0.334,0.081
'0:00.730',1.119,0.592,-0.527,-0.856,0.823,0.033,-1.024,0.783,-0.406,0.622,0.054,0.758,0.451,0.332,0.084
'0:00.731',1.113,0.59,-0.524,-0.852,0.819,0.033,-1.024,0.779,-0.412,0.615,0.047,0.752,0.444,0.33,0.084
'0:00.732',1.109,0.585,-0.525,-0.847,0.817,0.03,-1.021,0.775,-0.417,0.608,0.04,0.745,0.438,0.328,0.085
'0:00.733',1.107,0.581,-0.526,-0.845,0.817,0.027,-1.02,0.771,-0.424,0.601,0.03,0.739,0.431,0.326,0.087
'0:00.734',1.104,0.578,-0.526,-0.841,0.815,0.025,-1.021,0.766,-0.43,0.593,0.022,0.733,0.427,0.323,0.09
'0:00.735',1.095,0.57,-0.525,-0.833,0.81,0.022,-1.018,0.762,-0.438,0.585,0.012,0.725,0.419,0.32,0.092
'0:00.736',1.091,0.565,-0.526,-0.828,0.808,0.019,-1.018,0.758,-0.446,0.577,0.003,0.716,0.411,0.317,0.093
'0:00.737',1.087,0.56,-0.527,-0.824,0.807,0.017,-1.016,0.753,-0.453,0.568,-0.009,0.708,0.405,0.316,0.096
'0:00.738',1.081,0.554,-0.526,-0.819,0.804,0.014,-1.013,0.75,-0.459,0.559,-0.018,0.699,0.397,0.311,0.098
'0:00.739',1.077,0.547,-0.53,-0.812,0.803,0.009,-1.011,0.745,-0.465,0.551,-0.028,0.69,0.389,0.307,0.1
'0:00.740',1.069,0.54,-0.528,-0.805,0.798,0.006,-1.008,0.739,-0.473,0.54,-0.041,0.681,0.381,0.304,0.102
'0:00.741',1.065,0.535,-0.529,-0.8,0.797,0.003,-1.006,0.736,-0.479,0.531,-0.052,0.672,0.374,0.298,0.103
'0:00.742',1.063,0.53,-0.533,-0.796,0.797,-0.002,-1.004,0.733,-0.487,0.522,-0.065,0.662,0.364,0.296,0.106
'0:00.743',1.058,0.522,-0.535,-0.79,0.796,-0.006,-1.002,0.729,-0.494,0.511,-0.076,0.651,0.354,0.291,0.107
'0:00.744',1.051,0.516,-0.535,-0.784,0.793,-0.009,-0.997,0.725,-0.501,0.502,-0.088,0.643,0.346,0.287,0.11
'0:00.745',1.045,0.508,-0.536,-0.777,0.79,-0.014,-0.994,0.722,-0.508,0.493,-0.102,0.633,0.337,0.283,0.113
'0:00.746',1.041,0.5,-0.541,-0.771,0.791,-0.02,-0.993,0.719,-0.515,0.483,-0.112,0.624,0.328,0.277,0.115
'0:00.747',1.037,0.494,-0.542,-0.766,0.789,-0.024,-0.989,0.717,-0.522,0.473,-0.123,0.615,0.319,0.273,0.117
'0:00.748',1.033,0.487,-0.545,-0.76,0.789,-0.029,-0.985,0.714,-0.528,0.466,-0.136,0.604,0.309,0.269,0.118
'0:00.749',1.028,0.479,-0.549,-0.754,0.788,-0.035,-0.982,0.71,-0.534,0.455,-0.149,0.595,0.3,0.262,0.121
'0:00.750',1.022,0.47,-0.552,-0.747,0.787,-0.041,-0.979,0.708,-0.541,0.445,-0.159,0.586,0.292,0.256,0.123
'0:00.751',1.017,0.463,-0.554,-0.741,0.785,-0.045,-0.976,0.706,-0.547,0.438,-0.17,0.576,0.282,0.252,0.126
'0:00.752',1.012,0.456,-0.556,-0.735,0.784,-0.05,-0.973,0.702,-0.555,0.425,-0.184,0.565,0.272,0.246,0.127
'0:00.753',1.008,0.447,-0.561,-0.728,0.784,-0.057,-0.969,0.698,-0.561,0.415,-0.197,0.554,0.262,0.241,0.13
'0:00.754',1.004,0.439,-0.565,-0.722,0.784,-0.063,-0.966,0.696,-0.569,0.406,-0.208,0.545,0.253,0.236,0.133
'0:00.755',0.998,0.431,-0.567,-0.715,0.782,-0.068,-0.964,0.693,-0.576,0.396,-0.222,0.535,0.245,0.232,0.136
'0:00.756',0.992,0.421,-0.57,-0.707,0.78,-0.074,-0.962,0.69,-0.582,0.387,-0.235,0.525,0.236,0.227,0.139
'0:00.757',0.989,0.416,-0.573,-0.703,0.78,-0.079,-0.959,0.687,-0.59,0.377,-0.247,0.514,0.227,0.223,0.141
'0:00.758',0.984,0.41,-0.574,-0.697,0.778,-0.082,-0.956,0.684,-0.597,0.367,-0.26,0.505,0.218,0.217,0.144
'0:00.759',0.979,0.402,-0.577,-0.691,0.777,-0.087,-0.954,0.682,-0.604,0.356,-0.271,0.496,0.21,0.212,0.147
'0:00.760',0.974,0.396,-0.578,-0.685,0.775,-0.091,-0.952,0.679,-0.61,0.346,-0.282,0.487,0.201,0.207,0.149
'0:00.761',0.969,0.388,-0.581,-0.678,0.774,-0.097,-0.949,0.675,-0.617,0.335,-0.296,0.477,0.193,0.203,0.152
'0:00.762',0.967,0.381,-0.586,-0.674,0.776,-0.102,-0.947,0.673,-0.624,0.325,-0.309,0.468,0.186,0.197,0.157
'0:00.763',0.965,0.377,-0.589,-0.671,0.776,-0.106,-0.945,0.67,-0.629,0.317,-0.319,0.462,0.18,0.191,0.159
'0:00.764',0.963,0.37,-0.593,-0.667,0.777,-0.111,-0.943,0.667,-0.636,0.308,-0.33,0.453,0.173,0.19,0.162
'0:00.765',0.956,0.363,-0.593,-0.659,0.774,-0.115,-0.941,0.665,-0.641,0.299,-0.34,0.443,0.165,0.184,0.164
'0:00.766',0.947,0.354,-0.593,-0.65,0.769,-0.119,-0.938,0.664,-0.647,0.292,-0.349,0.435,0.157,0.178,0.167
'0:00.767',0.943,0.346,-0.597,-0.645,0.769,-0.125,-0.934,0.662,-0.651,0.286,-0.359,0.428,0.15,0.175,0.169
'0:00.768',0.94,0.34,-0.6,-0.64,0.769,-0.13,-0.931,0.66,-0.656,0.278,-0.367,0.421,0.143,0.169,0.172
'0:00.769',0.937,0.334,-0.603,-0.635,0.769,-0.135,-0.93,0.657,-0.661,0.27,-0.378,0.413,0.138,0.165,0.173
'0:00.770',0.932,0.329,-0.605,-0.63,0.768,-0.138,-0.931,0.654,-0.668,0.26,-0.389,0.404,0.132,0.162,0.176
'0:00.771',0.929,0.323,-0.607,-0.626,0.768,-0.142,-0.928,0.653,-0.674,0.252,-0.398,0.397,0.126,0.158,0.178
'0:00.772',0.923,0.314,-0.61,-0.619,0.766,-0.148,-0.926,0.652,-0.677,0.247,-0.406,0.392,0.12,0.154,0.18
'0:00.773',0.918,0.306,-0.613,-0.612,0.765,-0.153,-0.923,0.651,-0.681,0.241,-0.413,0.385,0.114,0.148,0.182
'0:00.774',0.914,0.3,-0.615,-0.608,0.764,-0.158,-0.921,0.649,-0.686,0.236,-0.421,0.378,0.108,0.144,0.182
'0:00.775',0.912,0.294,-0.619,-0.604,0.765,-0.163,-0.922,0.646,-0.692,0.227,-0.43,0.371,0.102,0.142,0.185
'0:00.776',0.91,0.289,-0.621,-0.6,0.765,-0.166,-0.919,0.645,-0.695,0.222,-0.436,0.366,0.098,0.138,0.188
'0:00.777',0.906,0.283,-0.623,-0.595,0.764,-0.17,-0.917,0.645,-0.697,0.218,-0.442,0.36,0.092,0.136,0.188
'0:00.778',0.903,0.28,-0.624,-0.592,0.763,-0.172,-0.916,0.643,-0.702,0.211,-0.45,0.354,0.088,0.135,0.19
'0:00.779',0.9,0.274,-0.627,-0.588,0.763,-0.177,-0.914,0.642,-0.705,0.207,-0.458,0.349,0.083,0.129,0.192
'0:00.780',0.899,0.269,-0.63,-0.585,0.764,-0.18,-0.913,0.641,-0.708,0.201,-0.464,0.344,0.077,0.124,0.194
'0:00.781',0.896,0.264,-0.631,-0.58,0.763,-0.184,-0.911,0.64,-0.713,0.196,-0.469,0.339,0.073,0.122,0.196
'0:00.782',0.891,0.26,-0.632,-0.576,0.761,-0.186,-0.91,0.639,-0.716,0.192,-0.476,0.334,0.069,0.121,0.197
'0:00.783',0.891,0.258,-0.634,-0.575,0.762,-0.188,-0.908,0.638,-0.719,0.186,-0.481,0.331,0.066,0.119,0.198
'0:00.784',0.889,0.252,-0.637,-0.571,0.763,-0.193,-0.906,0.638,-0.721,0.183,-0.486,0.329,0.062,0.115,0.2
'0:00.785',0.885,0.248,-0.638,-0.567,0.761,-0.195,-0.906,0.637,-0.725,0.179,-0.491,0.323,0.059,0.112,0.202
'0:00.786',0.885,0.243,-0.642,-0.565,0.763,-0.199,-0.907,0.634,-0.728,0.174,-0.495,0.319,0.056,0.107,0.203
'0:00.787',0.883,0.24,-0.643,-0.562,0.763,-0.202,-0.906,0.633,-0.731,0.17,-0.501,0.317,0.052,0.105,0.204
'0:00.788',0.882,0.239,-0.642,-0.561,0.762,-0.201,-0.902,0.633,-0.733,0.168,-0.504,0.312,0.049,0.104,0.206
'0:00.789',0.881,0.238,-0.643,-0.559,0.761,-0.203,-0.901,0.634,-0.734,0.165,-0.507,0.309,0.046,0.105,0.207
'0:00.790',0.878,0.234,-0.643,-0.556,0.76,-0.204,-0.901,0.634,-0.737,0.162,-0.512,0.307,0.043,0.103,0.208
'0:00.791',0.879,0.233,-0.646,-0.556,0.762,-0.207,-0.898,0.633,-0.738,0.158,-0.515,0.304,0.042,0.097,0.21
'0:00.792',0.88,0.232,-0.648,-0.556,0.764,-0.208,-0.898,0.633,-0.74,0.154,-0.52,0.301,0.038,0.097,0.21
'0:00.793',0.877,0.229,-0.649,-0.553,0.762,-0.21,-0.897,0.632,-0.742,0.152,-0.523,0.297,0.035,0.097,0.21
'0:00.794',0.875,0.225,-0.649,-0.55,0.761,-0.212,-0.896,0.631,-0.744,0.149,-0.526,0.294,0.033,0.096,0.212
'0:00.795',0.873,0.222,-0.651,-0.547,0.762,-0.215,-0.894,0.631,-0.745,0.147,-0.529,0.293,0.032,0.092,0.212
'0:00.796',0.87,0.218,-0.652,-0.544,0.761,-0.217,-0.894,0.63,-0.748,0.144,-0.533,0.29,0.029,0.09,0.212
'0:00.797',0.869,0.216,-0.652,-0.542,0.76,-0.218,-0.894,0.629,-0.75,0.142,-0.537,0.287,0.026,0.09,0.214
'0:00.798',0.87,0.217,-0.653,-0.544,0.761,-0.218,-0.893,0.629,-0.75,0.141,-0.54,0.285,0.025,0.088,0.214
'0:00.799',0.869,0.214,-0.654,-0.541,0.761,-0.221,-0.893,0.629,-0.752,0.137,-0.542,0.283,0.024,0.087,0.215
'0:00.800',0.868,0.211,-0.656,-0.54,0.762,-0.223,-0.894,0.628,-0.753,0.135,-0.545,0.281,0.023,0.086,0.217
'0:00.801',0.87,0.211,-0.658,-0.541,0.764,-0.223,-0.893,0.627,-0.755,0.133,-0.547,0.281,0.021,0.086,0.218
'0:00.802',0.87,0.212,-0.657,-0.541,0.763,-0.223,-0.893,0.627,-0.756,0.131,-0.549,0.28,0.021,0.085,0.219
'0:00.803',0.867,0.212,-0.654,-0.539,0.76,-0.222,-0.893,0.626,-0.758,0.127,-0.553,0.277,0.019,0.084,0.221
'0:00.804',0.862,0.207,-0.654,-0.535,0.757,-0.223,-0.892,0.626,-0.76,0.123,-0.555,0.275,0.015,0.082,0.22
'0:00.805',0.862,0.206,-0.655,-0.534,0.758,-0.225,-0.891,0.626,-0.761,0.122,-0.556,0.274,0.015,0.08,0.221
'0:00.806',0.864,0.206,-0.657,-0.535,0.76,-0.226,-0.891,0.625,-0.762,0.12,-0.559,0.274,0.015,0.082,0.223
'0:00.807',0.863,0.206,-0.657,-0.535,0.76,-0.225,-0.89,0.625,-0.763,0.119,-0.559,0.271,0.013,0.082,0.222
'0:00.808',0.863,0.206,-0.656,-0.534,0.759,-0.226,-0.889,0.626,-0.765,0.118,-0.561,0.271,0.013,0.08,0.222
'0:00.809',0.862,0.203,-0.658,-0.532,0.759,-0.228,-0.889,0.625,-0.765,0.119,-0.564,0.27,0.012,0.08,0.223
'0:00.810',0.86,0.203,-0.657,-0.531,0.758,-0.227,-0.889,0.624,-0.766,0.118,-0.565,0.268,0.011,0.081,0.223
'0:00.811',0.859,0.202,-0.657,-0.531,0.758,-0.228,-0.888,0.625,-0.768,0.117,-0.568,0.268,0.011,0.08,0.222
'0:00.812',0.861,0.202,-0.658,-0.531,0.759,-0.229,-0.889,0.624,-0.768,0.118,-0.568,0.268,0.01,0.08,0.224
'0:00.813',0.861,0.203,-0.658,-0.531,0.759,-0.228,-0.889,0.624,-0.769,0.117,-0.569,0.268,0.01,0.079,0.225
'0:00.814',0.86,0.203,-0.658,-0.531,0.759,-0.228,-0.889,0.622,-0.77,0.114,-0.572,0.265,0.007,0.076,0.225
'0:00.815',0.859,0.202,-0.658,-0.531,0.758,-0.228,-0.888,0.623,-0.77,0.114,-0.573,0.265,0.006,0.076,0.226
'0:00.816',0.859,0.202,-0.657,-0.53,0.758,-0.228,-0.887,0.623,-0.771,0.113,-0.573,0.264,0.007,0.077,0.226
'0:00.817',0.86,0.201,-0.658,-0.53,0.759,-0.229,-0.888,0.622,-0.771,0.113,-0.574,0.264,0.007,0.078,0.226
'0:00.818',0.858,0.201,-0.658,-0.529,0.757,-0.229,-0.886,0.622,-0.77,0.112,-0.574,0.263,0.006,0.078,0.227
'0:00.819',0.857,0.202,-0.656,-0.529,0.756,-0.228,-0.886,0.621,-0.771,0.112,-0.575,0.262,0.006,0.079,0.227
'0:00.820',0.859,0.201,-0.658,-0.53,0.758,-0.229,-0.886,0.622,-0.77,0.112,-0.574,0.26,0.004,0.077,0.226
'0:00.821',0.859,0.2,-0.659,-0.53,0.759,-0.23,-0.886,0.622,-0.77,0.112,-0.574,0.26,0.004,0.079,0.226
'0:00.822',0.859,0.199,-0.659,-0.529,0.759,-0.23,-0.886,0.622,-0.769,0.112,-0.576,0.261,0.003,0.078,0.226
'0:00.823',0.858,0.199,-0.659,-0.528,0.758,-0.231,-0.884,0.623,-0.769,0.113,-0.575,0.26,0.003,0.076,0.226
'0:00.824',0.857,0.199,-0.658,-0.528,0.757,-0.23,-0.884,0.624,-0.769,0.114,-0.575,0.261,0.003,0.077,0.225
'0:00.825',0.858,0.198,-0.659,-0.527,0.758,-0.231,-0.884,0.623,-0.769,0.113,-0.576,0.261,0.002,0.075,0.225
'0:00.826',0.861,0.2,-0.66,-0.53,0.76,-0.231,-0.882,0.625,-0.768,0.113,-0.575,0.262,0.002,0.074,0.225
'0:00.827',0.859,0.199,-0.66,-0.529,0.759,-0.231,-0.883,0.625,-0.768,0.113,-0.575,0.261,0.001,0.075,0.225
'0:00.828',0.857,0.197,-0.66,-0.527,0.758,-0.232,-0.883,0.623,-0.77,0.113,-0.576,0.261,0.001,0.075,0.226
'0:00.829',0.857,0.198,-0.658,-0.528,0.757,-0.23,-0.883,0.625,-0.768,0.113,-0.575,0.261,-0.001,0.074,0.225
'0:00.830',0.857,0.198,-0.659,-0.527,0.757,-0.231,-0.883,0.625,-0.769,0.112,-0.574,0.262,0,0.075,0.226
'0:00.831',0.859,0.198,-0.661,-0.528,0.759,-0.232,-0.883,0.624,-0.77,0.112,-0.575,0.262,0.001,0.074,0.225
'0:00.832',0.857,0.197,-0.659,-0.527,0.757,-0.231,-0.883,0.623,-0.769,0.111,-0.576,0.261,0.001,0.074,0.225
'0:00.833',0.856,0.197,-0.659,-0.526,0.757,-0.232,-0.883,0.623,-0.769,0.111,-0.577,0.261,0.001,0.075,0.226
'0:00.834',0.857,0.198,-0.659,-0.527,0.757,-0.231,-0.883,0.623,-0.77,0.112,-0.577,0.261,0.001,0.075,0.226
'0:00.835',0.856,0.198,-0.657,-0.527,0.756,-0.23,-0.884,0.623,-0.77,0.113,-0.575,0.262,0.002,0.076,0.225
'0:00.836',0.856,0.198,-0.657,-0.527,0.756,-0.23,-0.882,0.624,-0.769,0.114,-0.576,0.262,0.001,0.076,0.225
'0:00.837',0.854,0.197,-0.656,-0.525,0.755,-0.23,-0.883,0.623,-0.769,0.114,-0.576,0.262,0.001,0.075,0.225
'0:00.838',0.853,0.196,-0.656,-0.524,0.754,-0.231,-0.883,0.622,-0.768,0.115,-0.575,0.262,0.001,0.076,0.224
'0:00.839',0.853,0.196,-0.657,-0.524,0.754,-0.231,-0.882,0.623,-0.767,0.116,-0.576,0.263,0.001,0.075,0.224
'0:00.840',0.852,0.195,-0.657,-0.523,0.754,-0.232,-0.882,0.624,-0.767,0.117,-0.574,0.263,0.001,0.076,0.224
'0:00.841',0.852,0.194,-0.658,-0.523,0.755,-0.233,-0.88,0.625,-0.765,0.117,-0.573,0.263,0,0.077,0.225
'0:00.842',0.853,0.196,-0.658,-0.524,0.755,-0.232,-0.879,0.626,-0.765,0.117,-0.573,0.263,-0.001,0.076,0.223
'0:00.843',0.854,0.195,-0.658,-0.524,0.755,-0.232,-0.879,0.625,-0.766,0.117,-0.574,0.262,-0.003,0.076,0.223
'0:00.844',0.854,0.195,-0.659,-0.525,0.756,-0.232,-0.879,0.625,-0.766,0.116,-0.576,0.261,-0.003,0.076,0.223
'0:00.845',0.855,0.196,-0.659,-0.525,0.756,-0.232,-0.879,0.625,-0.767,0.115,-0.576,0.261,-0.003,0.074,0.223
'0:00.846',0.855,0.195,-0.659,-0.525,0.757,-0.232,-0.878,0.625,-0.766,0.115,-0.577,0.261,-0.003,0.073,0.222
'0:00.847',0.856,0.195,-0.661,-0.525,0.758,-0.234,-0.876,0.626,-0.764,0.115,-0.576,0.262,-0.003,0.074,0.223
'0:00.848',0.857,0.196,-0.661,-0.526,0.758,-0.233,-0.877,0.627,-0.763,0.117,-0.575,0.263,-0.003,0.073,0.223
'0:00.849',0.857,0.196,-0.661,-0.527,0.759,-0.233,-0.877,0.627,-0.763,0.117,-0.574,0.264,-0.003,0.071,0.222
'0:00.850',0.854,0.194,-0.66,-0.524,0.756,-0.233,-0.877,0.626,-0.763,0.116,-0.574,0.264,-0.003,0.072,0.223
'0:00.851',0.855,0.196,-0.659,-0.525,0.756,-0.232,-0.877,0.627,-0.764,0.117,-0.575,0.262,-0.003,0.074,0.223
'0:00.852',0.855,0.196,-0.658,-0.525,0.756,-0.232,-0.877,0.628,-0.762,0.118,-0.575,0.262,-0.002,0.074,0.222
'0:00.853',0.853,0.196,-0.658,-0.524,0.755,-0.231,-0.878,0.628,-0.761,0.117,-0.576,0.262,-0.002,0.074,0.224
'0:00.854',0.856,0.197,-0.659,-0.527,0.757,-0.231,-0.879,0.627,-0.762,0.117,-0.576,0.262,-0.002,0.073,0.223
'0:00.855',0.856,0.196,-0.66,-0.526,0.758,-0.232,-0.878,0.628,-0.761,0.118,-0.576,0.261,-0.001,0.071,0.222
'0:00.856',0.856,0.196,-0.659,-0.526,0.757,-0.232,-0.878,0.628,-0.761,0.117,-0.576,0.261,0,0.073,0.223
'0:00.857',0.855,0.198,-0.658,-0.526,0.756,-0.231,-0.879,0.628,-0.761,0.118,-0.575,0.262,-0.001,0.074,0.223
'0:00.858',0.855,0.198,-0.657,-0.526,0.756,-0.23,-0.879,0.628,-0.761,0.119,-0.574,0.262,-0.001,0.074,0.222
'0:00.859',0.856,0.198,-0.657,-0.527,0.756,-0.23,-0.88,0.626,-0.76,0.118,-0.575,0.262,-0.001,0.075,0.222
'0:00.860',0.857,0.198,-0.658,-0.527,0.757,-0.23,-0.878,0.627,-0.76,0.118,-0.575,0.261,-0.002,0.075,0.222
'0:00.861',0.858,0.198,-0.659,-0.528,0.758,-0.231,-0.879,0.627,-0.76,0.117,-0.575,0.262,0,0.074,0.223
'0:00.862',0.857,0.198,-0.659,-0.527,0.757,-0.231,-0.879,0.627,-0.759,0.119,-0.575,0.262,0.002,0.073,0.224
'0:00.863',0.859,0.199,-0.659,-0.529,0.759,-0.231,-0.879,0.629,-0.759,0.12,-0.576,0.262,0.001,0.076,0.223
'0:00.864',0.86,0.2,-0.659,-0.53,0.759,-0.23,-0.88,0.628,-0.759,0.119,-0.574,0.262,0.002,0.075,0.222
'0:00.865',0.856,0.2,-0.656,-0.527,0.756,-0.229,-0.879,0.628,-0.759,0.12,-0.574,0.262,0.001,0.073,0.222
'0:00.866',0.858,0.201,-0.657,-0.529,0.757,-0.229,-0.879,0.629,-0.758,0.12,-0.574,0.261,0.001,0.076,0.222
'0:00.867',0.859,0.202,-0.657,-0.531,0.758,-0.228,-0.879,0.629,-0.757,0.121,-0.573,0.262,0.001,0.073,0.222
'0:00.868',0.859,0.203,-0.656,-0.531,0.757,-0.227,-0.88,0.628,-0.758,0.12,-0.574,0.261,0.001,0.075,0.222
'0:00.869',0.858,0.203,-0.655,-0.53,0.756,-0.226,-0.881,0.629,-0.758,0.12,-0.574,0.261,0,0.079,0.222
'0:00.870',0.857,0.203,-0.653,-0.53,0.754,-0.225,-0.881,0.629,-0.757,0.12,-0.573,0.261,-0.001,0.077,0.219
'0:00.871',0.859,0.203,-0.655,-0.531,0.757,-0.226,-0.881,0.629,-0.756,0.121,-0.573,0.261,-0.001,0.077,0.219
'0:00.872',0.86,0.202,-0.658,-0.531,0.759,-0.229,-0.881,0.63,-0.756,0.122,-0.571,0.262,0,0.076,0.22
'0:00.873',0.861,0.203,-0.658,-0.532,0.759,-0.228,-0.881,0.63,-0.755,0.122,-0.572,0.263,0.001,0.077,0.221
'0:00.874',0.86,0.203,-0.658,-0.531,0.759,-0.228,-0.881,0.631,-0.755,0.122,-0.572,0.262,0.001,0.077,0.22
'0:00.875',0.86,0.202,-0.659,-0.531,0.759,-0.229,-0.88,0.631,-0.754,0.121,-0.57,0.262,0,0.077,0.219
'0:00.876',0.861,0.203,-0.658,-0.532,0.759,-0.228,-0.879,0.63,-0.754,0.122,-0.569,0.264,0.001,0.08,0.22
'0:00.877',0.861,0.201,-0.659,-0.531,0.76,-0.23,-0.879,0.63,-0.753,0.122,-0.568,0.264,0.001,0.076,0.219
'0:00.878',0.861,0.201,-0.66,-0.531,0.76,-0.23,-0.88,0.63,-0.753,0.121,-0.569,0.263,0,0.075,0.22
'0:00.879',0.862,0.203,-0.659,-0.532,0.76,-0.228,-0.878,0.63,-0.753,0.122,-0.569,0.263,0.001,0.076,0.22
'0:00.880',0.865,0.203,-0.661,-0.534,0.763,-0.229,-0.879,0.63,-0.753,0.124,-0.568,0.264,0.002,0.077,0.221
'0:00.881',0.864,0.203,-0.661,-0.533,0.762,-0.23,-0.879,0.631,-0.752,0.123,-0.569,0.264,0.002,0.077,0.221
'0:00.882',0.862,0.203,-0.659,-0.532,0.76,-0.229,-0.879,0.631,-0.753,0.123,-0.57,0.263,0,0.078,0.22
'0:00.883',0.865,0.203,-0.661,-0.534,0.762,-0.229,-0.877,0.63,-0.753,0.124,-0.569,0.263,0,0.076,0.221
'0:00.884',0.863,0.204,-0.658,-0.534,0.76,-0.227,-0.876,0.631,-0.752,0.126,-0.569,0.263,0.001,0.076,0.22
'0:00.885',0.863,0.206,-0.656,-0.534,0.759,-0.225,-0.877,0.631,-0.752,0.127,-0.568,0.263,0,0.079,0.22
'0:00.886',0.862,0.204,-0.657,-0.533,0.759,-0.227,-0.876,0.632,-0.751,0.128,-0.568,0.264,-0.001,0.078,0.22
'0:00.887',0.863,0.203,-0.659,-0.534,0.761,-0.228,-0.876,0.635,-0.751,0.128,-0.568,0.263,0,0.076,0.22
'0:00.888',0.863,0.204,-0.659,-0.534,0.761,-0.228,-0.875,0.634,-0.752,0.128,-0.568,0.263,-0.001,0.076,0.22
'0:00.889',0.864,0.204,-0.659,-0.534,0.761,-0.228,-0.876,0.634,-0.752,0.127,-0.569,0.262,-0.001,0.076,0.22
'0:00.890',0.864,0.204,-0.66,-0.534,0.762,-0.228,-0.874,0.635,-0.752,0.128,-0.567,0.263,-0.001,0.076,0.22
'0:00.891',0.863,0.206,-0.656,-0.535,0.759,-0.225,-0.873,0.635,-0.752,0.129,-0.566,0.265,-0.001,0.077,0.218
'0:00.892',0.865,0.206,-0.658,-0.536,0.761,-0.226,-0.874,0.635,-0.753,0.128,-0.566,0.265,-0.001,0.078,0.218
'0:00.893',0.866,0.205,-0.66,-0.535,0.763,-0.228,-0.874,0.635,-0.752,0.127,-0.567,0.265,-0.001,0.075,0.218
'0:00.894',0.867,0.207,-0.66,-0.537,0.763,-0.227,-0.875,0.634,-0.752,0.128,-0.566,0.266,0.001,0.079,0.219
'0:00.895',0.864,0.206,-0.656,-0.535,0.76,-0.225,-0.874,0.634,-0.752,0.126,-0.566,0.265,-0.001,0.079,0.22
'0:00.896',0.861,0.204,-0.657,-0.533,0.759,-0.227,-0.875,0.635,-0.752,0.126,-0.568,0.264,-0.002,0.075,0.219
'0:00.897',0.864,0.204,-0.659,-0.534,0.761,-0.228,-0.875,0.636,-0.753,0.128,-0.567,0.264,-0.001,0.076,0.219
'0:00.898',0.864,0.205,-0.659,-0.534,0.761,-0.227,-0.875,0.635,-0.753,0.126,-0.567,0.264,-0.001,0.076,0.219
'0:00.899',0.864,0.203,-0.66,-0.534,0.761,-0.228,-0.876,0.636,-0.753,0.126,-0.568,0.264,-0.001,0.076,0.219
'0:00.900',0.864,0.204,-0.66,-0.534,0.762,-0.228,-0.876,0.635,-0.753,0.124,-0.568,0.263,0,0.075,0.221
'0:00.901',0.864,0.203,-0.66,-0.533,0.761,-0.229,-0.877,0.635,-0.752,0.124,-0.567,0.263,0,0.076,0.22
'0:00.902',0.861,0.203,-0.658,-0.532,0.759,-0.228,-0.876,0.636,-0.752,0.126,-0.567,0.264,-0.001,0.079,0.218
'0:00.903',0.864,0.204,-0.659,-0.534,0.761,-0.228,-0.876,0.636,-0.751,0.124,-0.567,0.263,0.001,0.078,0.218
'0:00.904',0.866,0.203,-0.662,-0.534,0.763,-0.229,-0.875,0.636,-0.752,0.124,-0.567,0.263,0.001,0.079,0.22
'0:00.905',0.864,0.203,-0.66,-0.534,0.761,-0.228,-0.875,0.636,-0.751,0.124,-0.567,0.263,0.001,0.077,0.22
'0:00.906',0.869,0.206,-0.661,-0.537,0.764,-0.228,-0.875,0.637,-0.75,0.126,-0.566,0.265,0.002,0.076,0.221
'0:00.907',0.871,0.21,-0.661,-0.541,0.766,-0.226,-0.875,0.637,-0.75,0.127,-0.565,0.265,0.001,0.077,0.221
'0:00.908',0.87,0.21,-0.66,-0.54,0.764,-0.225,-0.876,0.636,-0.75,0.127,-0.565,0.264,0.001,0.08,0.221
'0:00.909',0.87,0.209,-0.661,-0.54,0.765,-0.226,-0.877,0.634,-0.751,0.126,-0.565,0.263,0.002,0.078,0.221
'0:00.910',0.867,0.206,-0.661,-0.536,0.763,-0.228,-0.877,0.634,-0.752,0.123,-0.567,0.262,0.001,0.076,0.221
'0:00.911',0.866,0.204,-0.661,-0.535,0.763,-0.228,-0.877,0.634,-0.752,0.122,-0.567,0.262,0.001,0.077,0.222
'0:00.912',0.867,0.207,-0.66,-0.537,0.763,-0.227,-0.877,0.634,-0.752,0.124,-0.566,0.263,0,0.076,0.221
'0:00.913',0.869,0.208,-0.66,-0.538,0.764,-0.227,-0.876,0.635,-0.75,0.126,-0.566,0.263,0.002,0.076,0.221
'0:00.914',0.871,0.208,-0.662,-0.539,0.766,-0.227,-0.877,0.633,-0.752,0.123,-0.565,0.264,0.002,0.076,0.221
'0:00.915',0.872,0.207,-0.665,-0.54,0.768,-0.229,-0.876,0.634,-0.752,0.122,-0.566,0.263,0.001,0.075,0.221
'0:00.916',0.871,0.207,-0.663,-0.539,0.766,-0.228,-0.874,0.636,-0.75,0.124,-0.565,0.264,0.001,0.076,0.221
'0:00.917',0.869,0.208,-0.661,-0.539,0.765,-0.227,-0.874,0.634,-0.751,0.124,-0.565,0.265,0,0.078,0.221
'0:00.918',0.871,0.208,-0.662,-0.539,0.766,-0.228,-0.875,0.634,-0.751,0.124,-0.566,0.264,0,0.076,0.221
'0:00.919',0.872,0.209,-0.663,-0.54,0.767,-0.227,-0.875,0.635,-0.751,0.124,-0.565,0.265,-0.001,0.076,0.222
'0:00.920',0.872,0.208,-0.663,-0.54,0.767,-0.227,-0.876,0.633,-0.751,0.123,-0.566,0.264,-0.001,0.077,0.222
'0:00.921',0.87,0.205,-0.664,-0.538,0.767,-0.23,-0.874,0.633,-0.753,0.123,-0.566,0.264,-0.001,0.075,0.222
'0:00.922',0.869,0.205,-0.663,-0.537,0.765,-0.229,-0.875,0.633,-0.754,0.122,-0.567,0.264,-0.002,0.076,0.224
'0:00.923',0.869,0.206,-0.662,-0.537,0.765,-0.228,-0.875,0.633,-0.753,0.122,-0.567,0.264,-0.003,0.077,0.224
'0:00.924',0.87,0.206,-0.663,-0.538,0.766,-0.229,-0.875,0.634,-0.753,0.122,-0.565,0.265,-0.001,0.076,0.224
'0:00.925',0.871,0.207,-0.663,-0.539,0.767,-0.229,-0.876,0.632,-0.754,0.122,-0.566,0.265,0.001,0.076,0.224
'0:00.926',0.873,0.205,-0.667,-0.539,0.77,-0.231,-0.877,0.632,-0.754,0.122,-0.567,0.265,-0.001,0.076,0.224
'0:00.927',0.87,0.204,-0.665,-0.537,0.767,-0.231,-0.876,0.633,-0.754,0.121,-0.568,0.264,-0.002,0.076,0.224
'0:00.928',0.869,0.204,-0.664,-0.536,0.766,-0.231,-0.875,0.633,-0.754,0.121,-0.568,0.264,-0.004,0.077,0.224
'0:00.929',0.869,0.202,-0.667,-0.535,0.767,-0.233,-0.875,0.633,-0.754,0.12,-0.567,0.264,-0.003,0.075,0.224
'0:00.930',0.867,0.201,-0.666,-0.533,0.766,-0.233,-0.875,0.633,-0.755,0.119,-0.566,0.265,-0.003,0.074,0.224
'0:00.931',0.869,0.202,-0.667,-0.535,0.767,-0.233,-0.877,0.631,-0.756,0.119,-0.567,0.264,-0.002,0.075,0.224
'0:00.932',0.869,0.202,-0.667,-0.535,0.767,-0.233,-0.877,0.631,-0.756,0.119,-0.568,0.265,-0.001,0.074,0.225
'0:00.933',0.869,0.202,-0.667,-0.536,0.767,-0.233,-0.876,0.631,-0.757,0.118,-0.568,0.265,-0.002,0.075,0.224
'0:00.934',0.869,0.203,-0.665,-0.536,0.766,-0.231,-0.876,0.63,-0.758,0.118,-0.569,0.263,-0.003,0.076,0.224
'0:00.935',0.868,0.204,-0.663,-0.536,0.765,-0.229,-0.876,0.628,-0.759,0.118,-0.569,0.262,-0.004,0.076,0.224
'0:00.936',0.869,0.204,-0.665,-0.537,0.766,-0.231,-0.875,0.629,-0.758,0.118,-0.57,0.263,-0.004,0.074,0.224
'0:00.937',0.871,0.205,-0.664,-0.538,0.767,-0.23,-0.875,0.629,-0.758,0.117,-0.57,0.262,-0.004,0.075,0.225
'0:00.938',0.871,0.205,-0.665,-0.538,0.768,-0.23,-0.875,0.628,-0.759,0.117,-0.571,0.261,-0.004,0.077,0.224
'0:00.939',0.87,0.205,-0.665,-0.537,0.767,-0.231,-0.876,0.629,-0.759,0.118,-0.57,0.262,-0.004,0.077,0.225
'0:00.940',0.87,0.205,-0.664,-0.537,0.766,-0.23,-0.876,0.63,-0.759,0.117,-0.57,0.262,-0.004,0.077,0.224
'0:00.941',0.87,0.205,-0.664,-0.537,0.766,-0.23,-0.876,0.631,-0.758,0.118,-0.57,0.262,-0.004,0.075,0.225
'0:00.942',0.869,0.205,-0.664,-0.537,0.766,-0.23,-0.876,0.63,-0.759,0.117,-0.57,0.262,-0.004,0.076,0.225
'0:00.943',0.87,0.203,-0.667,-0.537,0.768,-0.232,-0.875,0.629,-0.759,0.118,-0.571,0.262,-0.004,0.075,0.225
'0:00.944',0.87,0.204,-0.666,-0.537,0.768,-0.231,-0.875,0.629,-0.759,0.117,-0.57,0.262,-0.004,0.076,0.225
'0:00.945',0.872,0.205,-0.666,-0.539,0.768,-0.231,-0.874,0.63,-0.759,0.117,-0.57,0.262,-0.004,0.076,0.224
'0:00.946',0.874,0.206,-0.667,-0.54,0.77,-0.231,-0.874,0.63,-0.758,0.119,-0.569,0.263,-0.004,0.075,0.225
'0:00.947',0.874,0.206,-0.666,-0.54,0.769,-0.23,-0.875,0.629,-0.758,0.119,-0.568,0.262,-0.004,0.075,0.225
'0:00.948',0.873,0.206,-0.667,-0.54,0.769,-0.231,-0.875,0.629,-0.758,0.119,-0.568,0.262,-0.005,0.074,0.225
'0:00.949',0.872,0.206,-0.666,-0.539,0.769,-0.23,-0.873,0.629,-0.758,0.119,-0.568,0.263,-0.005,0.073,0.226
'0:00.950',0.872,0.206,-0.666,-0.539,0.768,-0.23,-0.874,0.629,-0.758,0.119,-0.569,0.264,-0.004,0.074,0.227
'0:00.951',0.872,0.205,-0.666,-0.539,0.769,-0.231,-0.875,0.628,-0.759,0.119,-0.57,0.264,-0.005,0.074,0.226
'0:00.952',0.871,0.205,-0.665,-0.538,0.767,-0.23,-0.875,0.628,-0.759,0.117,-0.571,0.264,-0.004,0.074,0.226
'0:00.953',0.87,0.203,-0.666,-0.537,0.768,-0.232,-0.875,0.628,-0.759,0.117,-0.571,0.263,-0.004,0.074,0.227
'0:00.954',0.871,0.203,-0.668,-0.536,0.769,-0.233,-0.876,0.627,-0.761,0.116,-0.572,0.263,-0.004,0.073,0.227
'0:00.955',0.869,0.203,-0.665,-0.536,0.767,-0.231,-0.876,0.626,-0.762,0.115,-0.574,0.26,-0.005,0.074,0.227
'0:00.956',0.869,0.202,-0.666,-0.535,0.767,-0.232,-0.876,0.625,-0.764,0.115,-0.576,0.259,-0.005,0.075,0.226
'0:00.957',0.867,0.202,-0.665,-0.534,0.766,-0.232,-0.877,0.624,-0.764,0.113,-0.576,0.258,-0.005,0.076,0.227
'0:00.958',0.867,0.203,-0.664,-0.534,0.765,-0.231,-0.877,0.624,-0.764,0.111,-0.576,0.259,-0.005,0.075,0.227
'0:00.959',0.867,0.202,-0.665,-0.534,0.766,-0.232,-0.877,0.623,-0.766,0.11,-0.577,0.258,-0.006,0.075,0.228
'0:00.960',0.866,0.202,-0.664,-0.534,0.764,-0.231,-0.878,0.623,-0.766,0.11,-0.578,0.256,-0.007,0.077,0.228
'0:00.961',0.866,0.202,-0.663,-0.533,0.764,-0.231,-0.876,0.624,-0.766,0.112,-0.577,0.257,-0.006,0.076,0.228
'0:00.962',0.865,0.201,-0.664,-0.532,0.764,-0.232,-0.877,0.623,-0.767,0.11,-0.578,0.257,-0.006,0.075,0.229
'0:00.963',0.867,0.201,-0.665,-0.533,0.765,-0.233,-0.877,0.623,-0.768,0.11,-0.578,0.257,-0.006,0.075,0.23
'0:00.964',0.867,0.201,-0.666,-0.534,0.766,-0.233,-0.875,0.623,-0.767,0.11,-0.578,0.257,-0.006,0.075,0.23
'0:00.965',0.866,0.199,-0.667,-0.533,0.766,-0.234,-0.875,0.622,-0.769,0.109,-0.579,0.257,-0.007,0.075,0.23
'0:00.966',0.865,0.2,-0.664,-0.532,0.764,-0.232,-0.875,0.622,-0.769,0.109,-0.579,0.257,-0.007,0.075,0.23
'0:00.967',0.865,0.202,-0.663,-0.533,0.763,-0.231,-0.875,0.622,-0.77,0.107,-0.58,0.256,-0.007,0.076,0.231
'0:00.968',0.864,0.203,-0.661,-0.533,0.762,-0.23,-0.876,0.622,-0.772,0.107,-0.579,0.255,-0.007,0.078,0.23
'0:00.969',0.865,0.203,-0.661,-0.534,0.762,-0.229,-0.877,0.622,-0.771,0.107,-0.58,0.254,-0.008,0.078,0.231
'0:00.970',0.868,0.205,-0.662,-0.536,0.764,-0.229,-0.876,0.622,-0.771,0.108,-0.579,0.255,-0.007,0.079,0.231
'0:00.971',0.867,0.203,-0.663,-0.535,0.764,-0.231,-0.876,0.622,-0.77,0.107,-0.579,0.255,-0.007,0.078,0.231
'0:00.972',0.865,0.202,-0.663,-0.533,0.763,-0.231,-0.876,0.621,-0.771,0.107,-0.58,0.256,-0.006,0.077,0.232
'0:00.973',0.864,0.2,-0.664,-0.532,0.763,-0.232,-0.876,0.621,-0.771,0.106,-0.58,0.256,-0.007,0.076,0.232
'0:00.974',0.865,0.2,-0.665,-0.533,0.764,-0.233,-0.876,0.621,-0.77,0.106,-0.58,0.256,-0.007,0.076,0.232
'0:00.975',0.867,0.203,-0.664,-0.535,0.765,-0.231,-0.876,0.621,-0.772,0.105,-0.582,0.255,-0.007,0.077,0.232
'0:00.976',0.867,0.202,-0.665,-0.534,0.765,-0.232,-0.875,0.621,-0.771,0.103,-0.583,0.255,-0.007,0.077,0.232
'0:00.977',0.865,0.201,-0.664,-0.533,0.764,-0.232,-0.876,0.62,-0.772,0.102,-0.583,0.255,-0.009,0.077,0.232
'0:00.978',0.865,0.2,-0.664,-0.532,0.764,-0.232,-0.876,0.619,-0.774,0.101,-0.585,0.254,-0.009,0.076,0.233
'0:00.979',0.864,0.201,-0.663,-0.532,0.763,-0.232,-0.877,0.619,-0.773,0.101,-0.585,0.255,-0.009,0.076,0.234
'0:00.980',0.865,0.202,-0.664,-0.533,0.764,-0.232,-0.877,0.618,-0.774,0.1,-0.584,0.254,-0.009,0.078,0.234
'0:00.981',0.865,0.201,-0.664,-0.533,0.764,-0.232,-0.877,0.617,-0.775,0.099,-0.585,0.253,-0.009,0.078,0.233
'0:00.982',0.865,0.199,-0.665,-0.532,0.764,-0.233,-0.878,0.616,-0.775,0.098,-0.588,0.252,-0.01,0.077,0.233
'0:00.983',0.863,0.198,-0.665,-0.53,0.764,-0.234,-0.878,0.616,-0.775,0.097,-0.587,0.251,-0.011,0.076,0.234
'0:00.984',0.862,0.198,-0.663,-0.53,0.762,-0.233,-0.879,0.617,-0.775,0.099,-0.587,0.252,-0.011,0.076,0.232
'0:00.985',0.863,0.199,-0.663,-0.531,0.762,-0.232,-0.879,0.617,-0.776,0.099,-0.587,0.25,-0.013,0.076,0.231
'0:00.986',0.862,0.199,-0.663,-0.53,0.762,-0.233,-0.878,0.616,-0.775,0.098,-0.587,0.25,-0.013,0.075,0.232
'0:00.987',0.863,0.199,-0.664,-0.531,0.763,-0.233,-0.878,0.616,-0.775,0.099,-0.587,0.252,-0.013,0.075,0.232
'0:00.988',0.864,0.2,-0.664,-0.531,0.763,-0.232,-0.877,0.616,-0.775,0.1,-0.586,0.253,-0.013,0.074,0.234
'0:00.989',0.865,0.199,-0.666,-0.532,0.765,-0.234,-0.878,0.616,-0.774,0.1,-0.587,0.253,-0.013,0.073,0.233
'0:00.990',0.866,0.199,-0.667,-0.532,0.766,-0.234,-0.879,0.615,-0.775,0.1,-0.588,0.253,-0.013,0.075,0.234
'0:00.991',0.864,0.198,-0.666,-0.53,0.764,-0.234,-0.879,0.615,-0.775,0.099,-0.587,0.252,-0.013,0.074,0.233
'0:00.992',0.864,0.197,-0.667,-0.53,0.765,-0.235,-0.878,0.615,-0.775,0.099,-0.587,0.251,-0.014,0.073,0.232
'0:00.993',0.864,0.198,-0.666,-0.531,0.765,-0.234,-0.878,0.614,-0.776,0.098,-0.587,0.252,-0.013,0.074,0.233
'0:00.994',0.863,0.196,-0.666,-0.529,0.764,-0.235,-0.877,0.614,-0.777,0.099,-0.588,0.252,-0.013,0.073,0.232
'0:00.995',0.863,0.196,-0.667,-0.53,0.765,-0.235,-0.878,0.614,-0.776,0.099,-0.587,0.253,-0.014,0.072,0.232
'0:00.996',0.864,0.198,-0.666,-0.531,0.764,-0.234,-0.878,0.614,-0.776,0.098,-0.587,0.255,-0.012,0.073,0.233
'0:00.997',0.866,0.199,-0.667,-0.532,0.766,-0.234,-0.878,0.614,-0.777,0.099,-0.587,0.254,-0.011,0.074,0.233
'0:00.998',0.864,0.197,-0.667,-0.53,0.765,-0.235,-0.876,0.614,-0.777,0.097,-0.587,0.254,-0.012,0.072,0.234
'0:00.999',0.862,0.196,-0.666,-0.529,0.764,-0.235,-0.876,0.615,-0.776,0.098,-0.587,0.255,-0.013,0.07,0.234
'0:01.000',0.861,0.197,-0.664,-0.529,0.762,-0.234,-0.876,0.615,-0.776,0.098,-0.587,0.254,-0.013,0.072,0.234
'0:01.001',0.86,0.195,-0.665,-0.527,0.762,-0.235,-0.875,0.616,-0.776,0.1,-0.586,0.256,-0.011,0.072,0.234
'0:01.002',0.861,0.196,-0.665,-0.528,0.763,-0.235,-0.875,0.615,-0.776,0.098,-0.587,0.256,-0.012,0.071,0.234
'0:01.003',0.86,0.195,-0.665,-0.527,0.762,-0.235,-0.874,0.614,-0.778,0.096,-0.587,0.254,-0.012,0.071,0.234
'0:01.004',0.859,0.192,-0.666,-0.525,0.762,-0.237,-0.873,0.616,-0.777,0.099,-0.587,0.255,-0.013,0.071,0.234
'0:01.005',0.86,0.195,-0.665,-0.527,0.762,-0.235,-0.873,0.615,-0.776,0.097,-0.587,0.254,-0.013,0.071,0.234
'0:01.006',0.86,0.196,-0.664,-0.528,0.762,-0.234,-0.874,0.614,-0.777,0.096,-0.587,0.254,-0.013,0.071,0.234
'0:01.007',0.861,0.196,-0.665,-0.528,0.763,-0.235,-0.875,0.613,-0.778,0.095,-0.588,0.253,-0.013,0.07,0.235
'0:01.008',0.862,0.196,-0.665,-0.529,0.763,-0.235,-0.874,0.612,-0.779,0.093,-0.588,0.252,-0.014,0.071,0.236
'0:01.009',0.859,0.196,-0.663,-0.528,0.761,-0.234,-0.874,0.613,-0.779,0.093,-0.59,0.251,-0.015,0.072,0.236
'0:01.010',0.858,0.196,-0.662,-0.527,0.76,-0.234,-0.875,0.612,-0.781,0.091,-0.592,0.25,-0.015,0.073,0.237
'0:01.011',0.857,0.195,-0.662,-0.526,0.759,-0.234,-0.875,0.611,-0.782,0.091,-0.593,0.25,-0.015,0.073,0.238
'0:01.012',0.858,0.196,-0.661,-0.527,0.759,-0.233,-0.874,0.611,-0.782,0.09,-0.593,0.251,-0.015,0.071,0.237
'0:01.013',0.861,0.198,-0.663,-0.529,0.761,-0.233,-0.875,0.609,-0.783,0.089,-0.593,0.248,-0.018,0.071,0.236
'0:01.014',0.859,0.197,-0.663,-0.528,0.76,-0.233,-0.875,0.609,-0.783,0.088,-0.595,0.248,-0.018,0.071,0.237
'0:01.015',0.86,0.196,-0.663,-0.528,0.761,-0.234,-0.876,0.61,-0.783,0.088,-0.596,0.248,-0.018,0.07,0.237
'0:01.016',0.862,0.198,-0.664,-0.53,0.763,-0.233,-0.876,0.609,-0.783,0.088,-0.596,0.247,-0.019,0.07,0.238
'0:01.017',0.863,0.199,-0.663,-0.531,0.762,-0.232,-0.875,0.608,-0.784,0.087,-0.596,0.249,-0.018,0.072,0.239
'0:01.018',0.862,0.201,-0.662,-0.531,0.761,-0.231,-0.876,0.609,-0.784,0.087,-0.595,0.248,-0.018,0.075,0.239
'0:01.019',0.86,0.199,-0.66,-0.529,0.76,-0.231,-0.875,0.609,-0.782,0.088,-0.594,0.248,-0.019,0.074,0.238
'0:01.020',0.861,0.198,-0.662,-0.53,0.761,-0.233,-0.874,0.609,-0.783,0.089,-0.594,0.249,-0.018,0.074,0.238
'0:01.021',0.862,0.2,-0.662,-0.531,0.762,-0.232,-0.875,0.61,-0.783,0.09,-0.594,0.25,-0.018,0.074,0.238
'0:01.022',0.86,0.198,-0.661,-0.529,0.76,-0.232,-0.875,0.61,-0.783,0.091,-0.594,0.25,-0.018,0.072,0.239
'0:01.023',0.86,0.199,-0.66,-0.529,0.76,-0.231,-0.874,0.611,-0.783,0.091,-0.594,0.25,-0.018,0.073,0.24
'0:01.024',0.862,0.2,-0.661,-0.531,0.761,-0.231,-0.875,0.609,-0.785,0.092,-0.594,0.249,-0.018,0.073,0.24
'0:01.025',0.864,0.199,-0.665,-0.531,0.764,-0.233,-0.875,0.608,-0.785,0.092,-0.594,0.249,-0.018,0.072,0.239
'0:01.026',0.859,0.197,-0.662,-0.528,0.76,-0.233,-0.874,0.609,-0.785,0.092,-0.594,0.249,-0.018,0.074,0.238
'0:01.027',0.856,0.194,-0.661,-0.525,0.758,-0.234,-0.875,0.609,-0.785,0.092,-0.594,0.248,-0.019,0.074,0.238
'0:01.028',0.858,0.196,-0.662,-0.527,0.76,-0.233,-0.874,0.61,-0.784,0.093,-0.592,0.249,-0.018,0.071,0.238
'0:01.029',0.86,0.199,-0.661,-0.53,0.76,-0.232,-0.873,0.61,-0.782,0.095,-0.591,0.251,-0.018,0.07,0.237
'0:01.030',0.86,0.198,-0.662,-0.529,0.761,-0.232,-0.873,0.611,-0.782,0.095,-0.591,0.249,-0.018,0.072,0.237
'0:01.031',0.859,0.198,-0.661,-0.528,0.76,-0.232,-0.872,0.611,-0.781,0.095,-0.591,0.249,-0.019,0.075,0.237
'0:01.032',0.861,0.198,-0.663,-0.529,0.761,-0.233,-0.874,0.611,-0.782,0.095,-0.591,0.251,-0.019,0.072,0.238
'0:01.033',0.863,0.198,-0.664,-0.53,0.763,-0.234,-0.874,0.612,-0.784,0.094,-0.59,0.25,-0.019,0.071,0.238
'0:01.034',0.862,0.198,-0.664,-0.53,0.763,-0.234,-0.873,0.611,-0.783,0.096,-0.591,0.248,-0.021,0.072,0.238
'0:01.035',0.861,0.197,-0.663,-0.529,0.761,-0.233,-0.874,0.611,-0.784,0.094,-0.593,0.247,-0.02,0.072,0.238
'0:01.036',0.858,0.194,-0.664,-0.526,0.761,-0.235,-0.873,0.61,-0.784,0.092,-0.593,0.248,-0.019,0.072,0.237
'0:01.037',0.857,0.193,-0.664,-0.525,0.76,-0.236,-0.872,0.61,-0.784,0.092,-0.594,0.246,-0.021,0.071,0.237
'0:01.038',0.859,0.195,-0.664,-0.527,0.761,-0.235,-0.873,0.61,-0.784,0.092,-0.593,0.246,-0.021,0.071,0.236
'0:01.039',0.859,0.195,-0.663,-0.527,0.761,-0.234,-0.873,0.61,-0.784,0.092,-0.594,0.247,-0.021,0.072,0.237
'0:01.040',0.859,0.196,-0.663,-0.527,0.76,-0.234,-0.872,0.609,-0.784,0.092,-0.595,0.246,-0.021,0.073,0.237
'0:01.041',0.861,0.195,-0.666,-0.528,0.763,-0.236,-0.872,0.609,-0.784,0.093,-0.595,0.247,-0.02,0.071,0.238
'0:01.042',0.862,0.194,-0.667,-0.527,0.764,-0.237,-0.873,0.61,-0.784,0.093,-0.594,0.248,-0.021,0.069,0.239
'0:01.043',0.86,0.193,-0.667,-0.526,0.763,-0.237,-0.871,0.609,-0.784,0.093,-0.594,0.248,-0.021,0.068,0.239
'0:01.044',0.86,0.191,-0.669,-0.525,0.764,-0.239,-0.873,0.609,-0.784,0.094,-0.594,0.247,-0.021,0.069,0.238
'0:01.045',0.861,0.192,-0.668,-0.526,0.764,-0.238,-0.873,0.609,-0.785,0.092,-0.593,0.247,-0.021,0.069,0.238
'0:01.046',0.859,0.194,-0.666,-0.526,0.762,-0.236,-0.872,0.608,-0.785,0.092,-0.593,0.247,-0.021,0.069,0.239
'0:01.047',0.86,0.193,-0.667,-0.527,0.763,-0.237,-0.871,0.609,-0.784,0.093,-0.593,0.247,-0.022,0.07,0.239
'0:01.048',0.862,0.194,-0.668,-0.528,0.764,-0.237,-0.871,0.61,-0.784,0.094,-0.593,0.248,-0.021,0.07,0.239
'0:01.049',0.861,0.193,-0.668,-0.527,0.764,-0.237,-0.869,0.61,-0.784,0.095,-0.593,0.249,-0.021,0.07,0.24
'0:01.050',0.859,0.192,-0.667,-0.525,0.763,-0.238,-0.87,0.611,-0.783,0.094,-0.593,0.249,-0.021,0.07,0.241
'0:01.051',0.859,0.194,-0.665,-0.527,0.761,-0.235,-0.87,0.61,-0.784,0.094,-0.592,0.249,-0.021,0.07,0.241
'0:01.052',0.862,0.198,-0.663,-0.53,0.762,-0.233,-0.87,0.61,-0.783,0.095,-0.591,0.25,-0.021,0.07,0.241
'0:01.053',0.863,0.197,-0.666,-0.53,0.764,-0.234,-0.871,0.609,-0.783,0.095,-0.592,0.248,-0.021,0.069,0.241
'0:01.054',0.862,0.196,-0.666,-0.528,0.763,-0.235,-0.871,0.609,-0.784,0.095,-0.593,0.248,-0.021,0.07,0.241
'0:01.055',0.862,0.196,-0.666,-0.529,0.763,-0.235,-0.871,0.609,-0.785,0.095,-0.593,0.247,-0.022,0.069,0.241
'0:01.056',0.862,0.196,-0.666,-0.529,0.763,-0.235,-0.871,0.608,-0.784,0.095,-0.593,0.247,-0.022,0.07,0.241
'0:01.057',0.865,0.197,-0.668,-0.53,0.766,-0.235,-0.872,0.609,-0.784,0.095,-0.592,0.249,-0.021,0.07,0.24
'0:01.058',0.867,0.198,-0.669,-0.532,0.767,-0.236,-0.871,0.609,-0.784,0.096,-0.592,0.249,-0.02,0.069,0.239
'0:01.059',0.864,0.196,-0.667,-0.53,0.765,-0.235,-0.869,0.61,-0.782,0.097,-0.591,0.25,-0.021,0.068,0.239
'0:01.060',0.863,0.197,-0.666,-0.53,0.764,-0.234,-0.87,0.609,-0.783,0.096,-0.592,0.249,-0.021,0.068,0.239
'0:01.061',0.863,0.197,-0.666,-0.53,0.764,-0.234,-0.872,0.609,-0.784,0.096,-0.592,0.249,-0.021,0.069,0.24
'0:01.062',0.864,0.197,-0.667,-0.53,0.765,-0.235,-0.871,0.61,-0.784,0.096,-0.592,0.248,-0.022,0.068,0.239
'0:01.063',0.863,0.196,-0.667,-0.53,0.764,-0.235,-0.87,0.61,-0.785,0.095,-0.592,0.248,-0.021,0.069,0.239
'0:01.064',0.864,0.197,-0.666,-0.53,0.765,-0.235,-0.87,0.612,-0.784,0.096,-0.592,0.25,-0.021,0.069,0.239
'0:01.065',0.867,0.199,-0.668,-0.533,0.767,-0.235,-0.87,0.611,-0.785,0.096,-0.591,0.25,-0.021,0.068,0.24
'0:01.066',0.866,0.199,-0.667,-0.533,0.766,-0.234,-0.87,0.61,-0.786,0.093,-0.594,0.248,-0.022,0.068,0.241
'0:01.067',0.865,0.199,-0.666,-0.531,0.765,-0.234,-0.871,0.61,-0.786,0.092,-0.593,0.247,-0.022,0.067,0.241
'0:01.068',0.865,0.198,-0.667,-0.531,0.766,-0.235,-0.87,0.61,-0.786,0.093,-0.592,0.248,-0.022,0.067,0.241
'0:01.069',0.865,0.198,-0.667,-0.531,0.766,-0.235,-0.87,0.611,-0.785,0.094,-0.593,0.249,-0.022,0.066,0.241
'0:01.070',0.864,0.197,-0.666,-0.53,0.765,-0.235,-0.87,0.611,-0.785,0.093,-0.592,0.249,-0.022,0.067,0.242
'0:01.071',0.865,0.199,-0.665,-0.531,0.764,-0.234,-0.869,0.61,-0.786,0.093,-0.592,0.248,-0.024,0.069,0.242
'0:01.072',0.866,0.199,-0.666,-0.532,0.765,-0.234,-0.869,0.61,-0.786,0.093,-0.592,0.249,-0.023,0.069,0.241
'0:01.073',0.866,0.199,-0.667,-0.532,0.766,-0.234,-0.869,0.61,-0.785,0.091,-0.593,0.249,-0.024,0.069,0.241
'0:01.074',0.864,0.198,-0.666,-0.531,0.765,-0.234,-0.869,0.611,-0.785,0.092,-0.593,0.248,-0.025,0.067,0.241
'0:01.075',0.862,0.195,-0.666,-0.528,0.763,-0.235,-0.87,0.611,-0.785,0.092,-0.593,0.248,-0.025,0.067,0.241
'0:01.076',0.862,0.196,-0.666,-0.528,0.763,-0.235,-0.87,0.61,-0.786,0.091,-0.594,0.247,-0.025,0.069,0.241
'0:01.077',0.862,0.196,-0.666,-0.529,0.764,-0.235,-0.87,0.609,-0.787,0.091,-0.593,0.247,-0.025,0.068,0.242
'0:01.078',0.863,0.197,-0.666,-0.53,0.764,-0.235,-0.87,0.61,-0.787,0.092,-0.593,0.248,-0.024,0.067,0.243
'0:01.079',0.863,0.198,-0.666,-0.53,0.764,-0.234,-0.87,0.61,-0.788,0.092,-0.594,0.247,-0.025,0.067,0.243
'0:01.080',0.863,0.196,-0.667,-0.529,0.764,-0.235,-0.869,0.61,-0.787,0.092,-0.593,0.247,-0.025,0.068,0.242
'0:01.081',0.862,0.196,-0.666,-0.529,0.763,-0.235,-0.87,0.609,-0.786,0.092,-0.594,0.248,-0.025,0.069,0.242
'0:01.082',0.861,0.195,-0.666,-0.528,0.763,-0.236,-0.87,0.608,-0.788,0.091,-0.595,0.246,-0.026,0.068,0.242
'0:01.083',0.863,0.196,-0.667,-0.53,0.765,-0.236,-0.87,0.61,-0.788,0.09,-0.594,0.245,-0.025,0.067,0.242
'0:01.084',0.864,0.197,-0.667,-0.53,0.765,-0.235,-0.869,0.61,-0.787,0.089,-0.593,0.246,-0.025,0.067,0.243
'0:01.085',0.863,0.195,-0.668,-0.529,0.765,-0.236,-0.869,0.609,-0.787,0.089,-0.593,0.245,-0.026,0.068,0.243
'0:01.086',0.863,0.195,-0.667,-0.529,0.764,-0.236,-0.87,0.609,-0.789,0.088,-0.595,0.246,-0.025,0.069,0.243
'0:01.087',0.863,0.195,-0.668,-0.529,0.765,-0.236,-0.87,0.609,-0.788,0.088,-0.594,0.246,-0.025,0.069,0.244
'0:01.088',0.864,0.194,-0.67,-0.529,0.767,-0.238,-0.87,0.608,-0.788,0.088,-0.594,0.246,-0.025,0.067,0.244
'0:01.089',0.863,0.191,-0.672,-0.527,0.767,-0.24,-0.869,0.608,-0.788,0.087,-0.594,0.246,-0.024,0.066,0.244
'0:01.090',0.862,0.19,-0.672,-0.526,0.767,-0.241,-0.869,0.609,-0.789,0.088,-0.594,0.245,-0.025,0.066,0.244
'0:01.091',0.862,0.191,-0.671,-0.527,0.766,-0.24,-0.869,0.608,-0.79,0.088,-0.594,0.245,-0.024,0.065,0.243
'0:01.092',0.862,0.191,-0.67,-0.526,0.766,-0.24,-0.869,0.609,-0.788,0.088,-0.593,0.246,-0.024,0.066,0.244
'0:01.093',0.862,0.19,-0.671,-0.526,0.766,-0.24,-0.869,0.609,-0.789,0.089,-0.592,0.246,-0.024,0.066,0.244
'0:01.094',0.862,0.19,-0.671,-0.526,0.766,-0.24,-0.868,0.609,-0.789,0.088,-0.592,0.246,-0.023,0.065,0.244
'0:01.095',0.861,0.19,-0.671,-0.526,0.765,-0.24,-0.868,0.609,-0.79,0.088,-0.594,0.246,-0.024,0.067,0.244
'0:01.096',0.862,0.19,-0.671,-0.526,0.766,-0.241,-0.869,0.608,-0.789,0.087,-0.594,0.246,-0.024,0.066,0.244
'0:01.097',0.861,0.19,-0.671,-0.526,0.766,-0.241,-0.868,0.61,-0.788,0.088,-0.592,0.246,-0.024,0.065,0.244
'0:01.098',0.863,0.191,-0.671,-0.527,0.766,-0.24,-0.869,0.608,-0.789,0.087,-0.594,0.246,-0.024,0.065,0.245
'0:01.099',0.863,0.191,-0.672,-0.527,0.767,-0.24,-0.871,0.609,-0.79,0.086,-0.595,0.246,-0.024,0.065,0.245
'0:01.100',0.863,0.191,-0.672,-0.527,0.767,-0.241,-0.87,0.608,-0.791,0.086,-0.594,0.246,-0.024,0.066,0.245
'0:01.101',0.862,0.191,-0.671,-0.526,0.766,-0.24,-0.87,0.607,-0.792,0.086,-0.594,0.246,-0.025,0.066,0.245
'0:01.102',0.861,0.189,-0.671,-0.525,0.765,-0.241,-0.87,0.607,-0.792,0.086,-0.595,0.245,-0.025,0.066,0.244
'0:01.103',0.862,0.19,-0.672,-0.526,0.766,-0.241,-0.871,0.606,-0.793,0.086,-0.595,0.245,-0.025,0.066,0.244
'0:01.104',0.859,0.189,-0.67,-0.524,0.764,-0.24,-0.872,0.606,-0.793,0.086,-0.596,0.245,-0.025,0.067,0.244
'0:01.105',0.858,0.188,-0.669,-0.523,0.763,-0.241,-0.871,0.604,-0.793,0.085,-0.596,0.243,-0.026,0.068,0.244
'0:01.106',0.858,0.189,-0.669,-0.523,0.763,-0.24,-0.87,0.605,-0.793,0.084,-0.596,0.243,-0.026,0.068,0.245
'0:01.107',0.857,0.187,-0.669,-0.522,0.762,-0.241,-0.87,0.605,-0.792,0.085,-0.595,0.244,-0.027,0.068,0.245
'0:01.108',0.856,0.185,-0.671,-0.52,0.763,-0.243,-0.87,0.606,-0.791,0.085,-0.595,0.246,-0.026,0.065,0.243
'0:01.109',0.854,0.181,-0.672,-0.518,0.763,-0.245,-0.87,0.607,-0.792,0.086,-0.595,0.244,-0.028,0.065,0.244
'0:01.110',0.857,0.183,-0.672,-0.52,0.764,-0.244,-0.872,0.606,-0.792,0.085,-0.597,0.245,-0.028,0.065,0.243
'0:01.111',0.859,0.185,-0.673,-0.522,0.765,-0.244,-0.872,0.606,-0.793,0.086,-0.595,0.245,-0.025,0.065,0.243
'0:01.112',0.857,0.182,-0.674,-0.519,0.765,-0.246,-0.87,0.606,-0.794,0.086,-0.595,0.243,-0.028,0.065,0.245
'0:01.113',0.855,0.181,-0.673,-0.518,0.764,-0.246,-0.869,0.606,-0.794,0.086,-0.597,0.243,-0.027,0.064,0.244
'0:01.114',0.856,0.182,-0.673,-0.519,0.764,-0.245,-0.869,0.605,-0.793,0.086,-0.596,0.243,-0.026,0.065,0.242
'0:01.115',0.857,0.185,-0.672,-0.521,0.764,-0.243,-0.869,0.605,-0.793,0.085,-0.596,0.244,-0.025,0.066,0.243
'0:01.116',0.856,0.186,-0.67,-0.521,0.763,-0.242,-0.868,0.605,-0.792,0.086,-0.595,0.245,-0.025,0.065,0.244
'0:01.117',0.857,0.185,-0.671,-0.521,0.763,-0.243,-0.867,0.606,-0.791,0.086,-0.594,0.245,-0.026,0.063,0.244
'0:01.118',0.855,0.183,-0.672,-0.519,0.763,-0.244,-0.867,0.606,-0.792,0.086,-0.593,0.246,-0.026,0.064,0.244
'0:01.119',0.853,0.183,-0.67,-0.518,0.761,-0.243,-0.867,0.605,-0.793,0.086,-0.594,0.245,-0.026,0.065,0.244
'0:01.120',0.854,0.184,-0.669,-0.519,0.761,-0.242,-0.868,0.605,-0.793,0.086,-0.595,0.245,-0.025,0.066,0.244
'0:01.121',0.853,0.182,-0.67,-0.518,0.761,-0.244,-0.867,0.605,-0.793,0.086,-0.595,0.245,-0.026,0.065,0.245
'0:01.122',0.853,0.181,-0.671,-0.517,0.762,-0.245,-0.867,0.605,-0.794,0.086,-0.595,0.245,-0.026,0.063,0.245
'0:01.123',0.855,0.181,-0.673,-0.518,0.763,-0.246,-0.868,0.604,-0.794,0.086,-0.595,0.243,-0.028,0.062,0.244
'0:01.124',0.855,0.181,-0.673,-0.518,0.763,-0.245,-0.868,0.603,-0.795,0.086,-0.596,0.243,-0.026,0.062,0.244
'0:01.125',0.853,0.183,-0.669,-0.519,0.761,-0.243,-0.869,0.604,-0.796,0.086,-0.596,0.243,-0.025,0.065,0.245
'0:01.126',0.854,0.182,-0.671,-0.519,0.762,-0.244,-0.868,0.602,-0.796,0.084,-0.598,0.243,-0.026,0.065,0.245
'0:01.127',0.856,0.182,-0.673,-0.519,0.764,-0.245,-0.868,0.602,-0.798,0.083,-0.599,0.243,-0.026,0.065,0.245
'0:01.128',0.854,0.182,-0.671,-0.518,0.762,-0.244,-0.87,0.602,-0.796,0.083,-0.598,0.242,-0.026,0.067,0.246
'0:01.129',0.852,0.181,-0.67,-0.516,0.761,-0.245,-0.869,0.602,-0.795,0.084,-0.597,0.243,-0.025,0.065,0.245
'0:01.130',0.852,0.181,-0.671,-0.516,0.761,-0.245,-0.87,0.602,-0.796,0.083,-0.597,0.242,-0.026,0.065,0.246
