'Elapsed time','i','ii','iii','avr','avl','avf','v1','v2','v3','v4','v5','v6','vx','vy','vz'
'hh:mm:ss.mmm','mV','mV','mV','mV','mV','mV','mV','mV','mV','mV','mV','mV','mV','mV','mV'
0,-1.702,-2.408,-0.707,2.054,-0.497,-1.557,-0.713,-0.741,-0.673,-0.902,-1.124,-1.157,-0.338,0.364,0.276
0.001,-1.705,-2.408,-0.703,2.057,-0.5,-1.556,-0.714,-0.742,-0.672,-0.901,-1.125,-1.159,-0.34,0.367,0.275
0.002,-1.704,-2.409,-0.704,2.057,-0.5,-1.556,-0.711,-0.74,-0.672,-0.901,-1.124,-1.158,-0.34,0.372,0.276
0.003,-1.706,-2.408,-0.703,2.057,-0.501,-1.556,-0.714,-0.74,-0.674,-0.904,-1.127,-1.159,-0.341,0.37,0.276
0.004,-1.709,-2.409,-0.7,2.058,-0.504,-1.554,-0.711,-0.738,-0.673,-0.903,-1.125,-1.16,-0.341,0.368,0.274
0.005,-1.702,-2.404,-0.702,2.053,-0.499,-1.553,-0.712,-0.742,-0.675,-0.906,-1.125,-1.159,-0.346,0.371,0.274
0.006,-1.7,-2.401,-0.702,2.05,-0.499,-1.552,-0.712,-0.74,-0.672,-0.904,-1.123,-1.159,-0.344,0.376,0.275
0.007,-1.704,-2.405,-0.701,2.054,-0.501,-1.552,-0.709,-0.739,-0.672,-0.904,-1.124,-1.161,-0.339,0.37,0.277
0.008,-1.704,-2.401,-0.698,2.053,-0.502,-1.55,-0.71,-0.738,-0.669,-0.906,-1.125,-1.159,-0.342,0.372,0.277
0.009,-1.703,-2.401,-0.699,2.052,-0.501,-1.55,-0.71,-0.737,-0.67,-0.907,-1.123,-1.157,-0.341,0.373,0.276
0.01,-1.701,-2.403,-0.702,2.052,-0.499,-1.552,-0.71,-0.741,-0.677,-0.914,-1.128,-1.159,-0.341,0.371,0.277
0.011,-1.7,-2.401,-0.7,2.05,-0.499,-1.55,-0.709,-0.739,-0.674,-0.915,-1.125,-1.158,-0.341,0.373,0.278
0.012,-1.695,-2.396,-0.701,2.046,-0.497,-1.548,-0.709,-0.741,-0.673,-0.914,-1.124,-1.157,-0.341,0.372,0.277
0.013,-1.694,-2.396,-0.702,2.045,-0.495,-1.548,-0.709,-0.742,-0.674,-0.913,-1.125,-1.157,-0.341,0.372,0.278
0.014,-1.696,-2.398,-0.701,2.047,-0.497,-1.55,-0.71,-0.74,-0.674,-0.912,-1.125,-1.157,-0.34,0.37,0.279
0.015,-1.701,-2.401,-0.7,2.05,-0.5,-1.55,-0.708,-0.74,-0.674,-0.91,-1.124,-1.157,-0.343,0.365,0.279
0.016,-1.702,-2.402,-0.701,2.053,-0.5,-1.552,-0.705,-0.74,-0.675,-0.911,-1.123,-1.158,-0.343,0.367,0.28
0.017,-1.701,-2.401,-0.701,2.051,-0.499,-1.551,-0.705,-0.74,-0.674,-0.91,-1.121,-1.157,-0.341,0.368,0.279
0.018,-1.701,-2.401,-0.701,2.051,-0.5,-1.551,-0.704,-0.739,-0.674,-0.906,-1.121,-1.157,-0.34,0.365,0.278
0.019,-1.7,-2.402,-0.703,2.051,-0.498,-1.553,-0.705,-0.741,-0.678,-0.908,-1.124,-1.159,-0.341,0.363,0.278
0.02,-1.7,-2.402,-0.702,2.051,-0.498,-1.552,-0.704,-0.742,-0.678,-0.906,-1.123,-1.158,-0.341,0.359,0.277
0.021,-1.702,-2.4,-0.699,2.051,-0.501,-1.549,-0.707,-0.742,-0.678,-0.905,-1.126,-1.161,-0.342,0.361,0.277
0.022,-1.702,-2.401,-0.699,2.052,-0.501,-1.55,-0.706,-0.741,-0.678,-0.905,-1.126,-1.161,-0.342,0.361,0.277
0.023,-1.701,-2.401,-0.7,2.051,-0.499,-1.551,-0.704,-0.741,-0.675,-0.905,-1.124,-1.159,-0.341,0.361,0.278
0.024,-1.702,-2.401,-0.7,2.051,-0.5,-1.55,-0.708,-0.743,-0.676,-0.91,-1.125,-1.161,-0.344,0.366,0.278
0.025,-1.703,-2.4,-0.697,2.051,-0.502,-1.548,-0.707,-0.744,-0.678,-0.912,-1.125,-1.161,-0.344,0.368,0.277
0.026,-1.704,-2.399,-0.696,2.051,-0.503,-1.548,-0.707,-0.742,-0.678,-0.912,-1.127,-1.159,-0.343,0.371,0.277
0.027,-1.702,-2.398,-0.697,2.05,-0.502,-1.547,-0.709,-0.743,-0.677,-0.914,-1.126,-1.16,-0.344,0.369,0.278
0.028,-1.698,-2.396,-0.698,2.047,-0.499,-1.547,-0.709,-0.744,-0.677,-0.916,-1.127,-1.159,-0.342,0.369,0.277
0.029,-1.699,-2.397,-0.699,2.048,-0.499,-1.548,-0.708,-0.741,-0.676,-0.917,-1.126,-1.158,-0.343,0.375,0.276
0.03,-1.702,-2.399,-0.697,2.05,-0.502,-1.548,-0.708,-0.739,-0.676,-0.918,-1.125,-1.159,-0.343,0.381,0.276
0.031,-1.702,-2.401,-0.699,2.051,-0.5,-1.55,-0.708,-0.741,-0.675,-0.919,-1.125,-1.159,-0.343,0.379,0.277
0.032,-1.699,-2.401,-0.702,2.05,-0.498,-1.552,-0.709,-0.743,-0.676,-0.919,-1.125,-1.159,-0.344,0.375,0.278
0.033,-1.696,-2.399,-0.703,2.047,-0.496,-1.55,-0.708,-0.742,-0.675,-0.916,-1.124,-1.157,-0.342,0.377,0.278
0.034,-1.694,-2.398,-0.704,2.046,-0.495,-1.551,-0.707,-0.74,-0.674,-0.915,-1.123,-1.155,-0.342,0.374,0.279
0.035,-1.694,-2.398,-0.703,2.046,-0.495,-1.55,-0.708,-0.743,-0.677,-0.915,-1.124,-1.159,-0.343,0.372,0.279
0.036,-1.696,-2.398,-0.703,2.047,-0.496,-1.55,-0.707,-0.743,-0.678,-0.914,-1.126,-1.159,-0.343,0.372,0.278
0.037,-1.695,-2.397,-0.702,2.046,-0.496,-1.55,-0.707,-0.742,-0.678,-0.911,-1.125,-1.157,-0.342,0.376,0.278
0.038,-1.694,-2.397,-0.702,2.046,-0.496,-1.549,-0.708,-0.741,-0.679,-0.908,-1.125,-1.157,-0.341,0.381,0.276
0.039,-1.696,-2.398,-0.703,2.047,-0.496,-1.55,-0.71,-0.741,-0.678,-0.907,-1.125,-1.155,-0.34,0.383,0.276
0.04,-1.694,-2.399,-0.705,2.046,-0.494,-1.552,-0.71,-0.742,-0.678,-0.905,-1.124,-1.157,-0.341,0.383,0.276
0.041,-1.698,-2.4,-0.702,2.049,-0.498,-1.55,-0.709,-0.743,-0.679,-0.904,-1.125,-1.157,-0.341,0.382,0.277
0.042,-1.704,-2.402,-0.699,2.053,-0.502,-1.55,-0.709,-0.743,-0.679,-0.904,-1.125,-1.157,-0.342,0.377,0.278
0.043,-1.708,-2.408,-0.7,2.058,-0.504,-1.553,-0.709,-0.743,-0.679,-0.906,-1.127,-1.157,-0.343,0.368,0.278
0.044,-1.706,-2.409,-0.702,2.057,-0.501,-1.555,-0.712,-0.748,-0.682,-0.908,-1.129,-1.158,-0.342,0.369,0.279
0.045,-1.702,-2.405,-0.704,2.054,-0.499,-1.554,-0.711,-0.749,-0.681,-0.91,-1.129,-1.159,-0.342,0.368,0.278
0.046,-1.704,-2.407,-0.703,2.056,-0.5,-1.554,-0.71,-0.746,-0.679,-0.909,-1.127,-1.159,-0.343,0.367,0.278
0.047,-1.704,-2.409,-0.704,2.057,-0.499,-1.556,-0.711,-0.748,-0.681,-0.912,-1.127,-1.159,-0.343,0.366,0.279
0.048,-1.706,-2.408,-0.703,2.057,-0.501,-1.555,-0.711,-0.747,-0.682,-0.914,-1.127,-1.159,-0.344,0.367,0.278
0.049,-1.709,-2.411,-0.703,2.06,-0.502,-1.556,-0.712,-0.745,-0.68,-0.917,-1.127,-1.159,-0.346,0.369,0.279
0.05,-1.708,-2.412,-0.704,2.059,-0.501,-1.558,-0.711,-0.745,-0.68,-0.917,-1.124,-1.159,-0.343,0.368,0.28
0.051,-1.711,-2.414,-0.703,2.062,-0.503,-1.558,-0.708,-0.744,-0.679,-0.918,-1.123,-1.159,-0.341,0.364,0.28
0.052,-1.714,-2.416,-0.703,2.064,-0.504,-1.559,-0.709,-0.748,-0.68,-0.921,-1.131,-1.161,-0.345,0.361,0.281
0.053,-1.714,-2.416,-0.702,2.064,-0.506,-1.558,-0.71,-0.749,-0.682,-0.918,-1.129,-1.163,-0.345,0.364,0.281
0.054,-1.714,-2.415,-0.702,2.064,-0.505,-1.558,-0.709,-0.749,-0.682,-0.917,-1.125,-1.16,-0.344,0.364,0.281
0.055,-1.712,-2.413,-0.702,2.062,-0.504,-1.557,-0.711,-0.749,-0.683,-0.918,-1.127,-1.161,-0.343,0.362,0.279
0.056,-1.714,-2.412,-0.699,2.062,-0.507,-1.555,-0.708,-0.746,-0.681,-0.913,-1.125,-1.159,-0.342,0.372,0.279
0.057,-1.715,-2.412,-0.698,2.063,-0.508,-1.555,-0.707,-0.746,-0.682,-0.911,-1.125,-1.159,-0.342,0.375,0.279
0.058,-1.714,-2.416,-0.701,2.065,-0.506,-1.558,-0.707,-0.748,-0.682,-0.91,-1.126,-1.16,-0.343,0.367,0.278
0.059,-1.712,-2.414,-0.704,2.062,-0.503,-1.558,-0.705,-0.748,-0.681,-0.907,-1.125,-1.159,-0.344,0.365,0.278
0.06,-1.712,-2.413,-0.702,2.062,-0.504,-1.558,-0.706,-0.747,-0.683,-0.904,-1.127,-1.158,-0.343,0.365,0.278
0.061,-1.71,-2.412,-0.703,2.061,-0.503,-1.558,-0.706,-0.745,-0.681,-0.903,-1.124,-1.157,-0.342,0.367,0.277
0.062,-1.706,-2.41,-0.704,2.058,-0.5,-1.557,-0.707,-0.744,-0.681,-0.904,-1.122,-1.157,-0.342,0.363,0.278
0.063,-1.707,-2.41,-0.704,2.059,-0.501,-1.557,-0.707,-0.746,-0.682,-0.906,-1.125,-1.159,-0.343,0.366,0.278
0.064,-1.708,-2.409,-0.702,2.058,-0.502,-1.556,-0.707,-0.746,-0.682,-0.907,-1.124,-1.16,-0.344,0.369,0.277
0.065,-1.71,-2.412,-0.703,2.061,-0.503,-1.557,-0.708,-0.745,-0.681,-0.906,-1.125,-1.159,-0.343,0.363,0.278
0.066,-1.707,-2.411,-0.704,2.059,-0.501,-1.558,-0.707,-0.746,-0.68,-0.905,-1.123,-1.158,-0.341,0.366,0.278
0.067,-1.706,-2.409,-0.703,2.057,-0.501,-1.556,-0.707,-0.746,-0.682,-0.907,-1.125,-1.159,-0.343,0.366,0.278
0.068,-1.705,-2.407,-0.702,2.056,-0.501,-1.554,-0.707,-0.744,-0.681,-0.909,-1.125,-1.159,-0.344,0.366,0.277
0.069,-1.702,-2.402,-0.701,2.051,-0.5,-1.551,-0.707,-0.743,-0.681,-0.912,-1.127,-1.161,-0.345,0.375,0.277
0.07,-1.706,-2.404,-0.698,2.054,-0.503,-1.55,-0.705,-0.743,-0.681,-0.914,-1.129,-1.161,-0.346,0.374,0.278
0.071,-1.706,-2.405,-0.699,2.056,-0.503,-1.552,-0.705,-0.744,-0.681,-0.913,-1.128,-1.16,-0.346,0.365,0.278
0.072,-1.702,-2.402,-0.7,2.052,-0.501,-1.55,-0.707,-0.745,-0.682,-0.912,-1.127,-1.159,-0.344,0.364,0.278
0.073,-1.7,-2.401,-0.702,2.05,-0.499,-1.552,-0.707,-0.743,-0.681,-0.91,-1.125,-1.159,-0.343,0.37,0.276
0.074,-1.698,-2.401,-0.704,2.05,-0.496,-1.552,-0.705,-0.742,-0.68,-0.91,-1.124,-1.16,-0.344,0.374,0.276
0.075,-1.698,-2.4,-0.702,2.049,-0.498,-1.55,-0.707,-0.742,-0.68,-0.91,-1.124,-1.159,-0.345,0.373,0.276
0.076,-1.698,-2.404,-0.705,2.051,-0.496,-1.554,-0.708,-0.744,-0.681,-0.91,-1.129,-1.161,-0.345,0.367,0.277
0.077,-1.698,-2.403,-0.706,2.05,-0.495,-1.554,-0.708,-0.745,-0.681,-0.908,-1.129,-1.159,-0.344,0.365,0.278
0.078,-1.695,-2.398,-0.703,2.046,-0.495,-1.55,-0.709,-0.744,-0.679,-0.905,-1.127,-1.159,-0.343,0.368,0.276
0.079,-1.694,-2.398,-0.704,2.046,-0.494,-1.551,-0.709,-0.746,-0.681,-0.903,-1.127,-1.16,-0.343,0.366,0.276
0.08,-1.697,-2.4,-0.702,2.048,-0.497,-1.55,-0.711,-0.747,-0.683,-0.902,-1.126,-1.161,-0.344,0.361,0.275
0.081,-1.698,-2.398,-0.701,2.048,-0.498,-1.55,-0.71,-0.746,-0.684,-0.903,-1.127,-1.161,-0.343,0.363,0.275
0.082,-1.7,-2.399,-0.7,2.05,-0.499,-1.549,-0.71,-0.746,-0.685,-0.902,-1.127,-1.16,-0.343,0.365,0.276
0.083,-1.702,-2.402,-0.701,2.052,-0.5,-1.552,-0.711,-0.748,-0.686,-0.904,-1.127,-1.161,-0.344,0.362,0.276
0.084,-1.698,-2.402,-0.704,2.05,-0.497,-1.552,-0.712,-0.746,-0.685,-0.903,-1.125,-1.161,-0.343,0.36,0.275
0.085,-1.698,-2.402,-0.704,2.05,-0.496,-1.553,-0.712,-0.744,-0.683,-0.902,-1.123,-1.159,-0.342,0.362,0.275
0.086,-1.7,-2.402,-0.702,2.051,-0.498,-1.552,-0.712,-0.745,-0.683,-0.904,-1.123,-1.159,-0.343,0.36,0.275
0.087,-1.699,-2.399,-0.7,2.049,-0.499,-1.55,-0.712,-0.745,-0.683,-0.903,-1.121,-1.158,-0.34,0.357,0.275
0.088,-1.698,-2.397,-0.699,2.049,-0.499,-1.548,-0.711,-0.745,-0.682,-0.903,-1.123,-1.159,-0.34,0.361,0.274
0.089,-1.699,-2.398,-0.699,2.049,-0.499,-1.548,-0.711,-0.745,-0.681,-0.906,-1.123,-1.16,-0.344,0.365,0.274
0.09,-1.696,-2.393,-0.698,2.044,-0.498,-1.546,-0.71,-0.744,-0.682,-0.908,-1.121,-1.158,-0.347,0.369,0.272
0.091,-1.693,-2.393,-0.701,2.043,-0.496,-1.547,-0.71,-0.744,-0.682,-0.906,-1.121,-1.157,-0.341,0.367,0.275
0.092,-1.694,-2.394,-0.7,2.043,-0.496,-1.547,-0.709,-0.744,-0.681,-0.905,-1.119,-1.158,-0.339,0.366,0.278
0.093,-1.692,-2.388,-0.696,2.04,-0.498,-1.542,-0.708,-0.742,-0.681,-0.904,-1.117,-1.159,-0.344,0.372,0.274
0.094,-1.694,-2.393,-0.7,2.043,-0.497,-1.546,-0.706,-0.742,-0.679,-0.902,-1.117,-1.158,-0.343,0.367,0.276
0.095,-1.694,-2.393,-0.699,2.043,-0.497,-1.546,-0.707,-0.743,-0.68,-0.902,-1.118,-1.158,-0.344,0.363,0.275
0.096,-1.69,-2.388,-0.698,2.039,-0.496,-1.542,-0.707,-0.74,-0.678,-0.901,-1.116,-1.157,-0.342,0.365,0.276
0.097,-1.691,-2.389,-0.698,2.039,-0.496,-1.543,-0.704,-0.739,-0.674,-0.898,-1.117,-1.155,-0.344,0.361,0.276
0.098,-1.691,-2.388,-0.697,2.039,-0.496,-1.542,-0.706,-0.74,-0.675,-0.896,-1.117,-1.155,-0.343,0.365,0.274
0.099,-1.692,-2.389,-0.697,2.041,-0.497,-1.543,-0.707,-0.741,-0.675,-0.894,-1.116,-1.155,-0.341,0.371,0.276
0.1,-1.692,-2.392,-0.701,2.042,-0.495,-1.546,-0.707,-0.741,-0.674,-0.891,-1.116,-1.155,-0.342,0.369,0.275
0.101,-1.688,-2.392,-0.704,2.04,-0.491,-1.548,-0.71,-0.741,-0.674,-0.891,-1.117,-1.155,-0.341,0.366,0.274
0.102,-1.688,-2.39,-0.702,2.039,-0.492,-1.546,-0.71,-0.741,-0.673,-0.894,-1.115,-1.157,-0.343,0.366,0.273
0.103,-1.693,-2.395,-0.702,2.044,-0.495,-1.548,-0.705,-0.739,-0.672,-0.893,-1.115,-1.155,-0.344,0.365,0.273
0.104,-1.692,-2.393,-0.702,2.043,-0.495,-1.548,-0.706,-0.739,-0.673,-0.895,-1.115,-1.157,-0.344,0.365,0.274
0.105,-1.689,-2.388,-0.7,2.038,-0.494,-1.544,-0.709,-0.739,-0.673,-0.894,-1.113,-1.157,-0.344,0.372,0.273
0.106,-1.687,-2.385,-0.699,2.035,-0.493,-1.542,-0.707,-0.739,-0.671,-0.894,-1.111,-1.153,-0.342,0.379,0.272
0.107,-1.685,-2.384,-0.7,2.034,-0.492,-1.542,-0.707,-0.738,-0.673,-0.896,-1.112,-1.155,-0.343,0.372,0.273
0.108,-1.684,-2.384,-0.7,2.034,-0.491,-1.542,-0.708,-0.74,-0.673,-0.899,-1.114,-1.157,-0.344,0.371,0.272
0.109,-1.685,-2.384,-0.7,2.034,-0.492,-1.542,-0.705,-0.741,-0.673,-0.902,-1.114,-1.155,-0.344,0.368,0.274
0.11,-1.685,-2.382,-0.697,2.034,-0.493,-1.54,-0.704,-0.737,-0.672,-0.901,-1.113,-1.153,-0.344,0.364,0.275
0.111,-1.681,-2.378,-0.698,2.03,-0.491,-1.538,-0.704,-0.736,-0.671,-0.902,-1.111,-1.151,-0.344,0.367,0.275
0.112,-1.681,-2.378,-0.698,2.03,-0.491,-1.538,-0.707,-0.737,-0.671,-0.902,-1.111,-1.153,-0.344,0.369,0.275
0.113,-1.681,-2.376,-0.695,2.029,-0.493,-1.536,-0.708,-0.738,-0.67,-0.9,-1.111,-1.153,-0.344,0.377,0.274
0.114,-1.683,-2.377,-0.693,2.03,-0.494,-1.535,-0.706,-0.736,-0.672,-0.898,-1.111,-1.153,-0.344,0.374,0.274
0.115,-1.685,-2.377,-0.693,2.031,-0.495,-1.535,-0.707,-0.734,-0.672,-0.897,-1.113,-1.153,-0.345,0.372,0.274
0.116,-1.681,-2.378,-0.697,2.03,-0.491,-1.538,-0.708,-0.737,-0.673,-0.898,-1.114,-1.154,-0.344,0.37,0.274
0.117,-1.681,-2.38,-0.698,2.03,-0.491,-1.539,-0.708,-0.738,-0.675,-0.898,-1.113,-1.154,-0.344,0.368,0.273
0.118,-1.685,-2.38,-0.696,2.033,-0.494,-1.538,-0.707,-0.737,-0.674,-0.896,-1.113,-1.155,-0.345,0.373,0.272
0.119,-1.683,-2.377,-0.695,2.03,-0.493,-1.536,-0.708,-0.738,-0.674,-0.896,-1.113,-1.155,-0.344,0.371,0.272
0.12,-1.681,-2.377,-0.697,2.029,-0.491,-1.537,-0.708,-0.738,-0.674,-0.894,-1.115,-1.155,-0.344,0.365,0.273
0.121,-1.684,-2.381,-0.697,2.033,-0.493,-1.539,-0.706,-0.739,-0.673,-0.892,-1.115,-1.155,-0.344,0.366,0.273
0.122,-1.687,-2.382,-0.696,2.034,-0.495,-1.539,-0.705,-0.737,-0.673,-0.892,-1.115,-1.153,-0.344,0.369,0.272
0.123,-1.688,-2.385,-0.697,2.036,-0.494,-1.54,-0.706,-0.739,-0.675,-0.894,-1.115,-1.155,-0.344,0.371,0.272
0.124,-1.688,-2.382,-0.695,2.035,-0.496,-1.538,-0.708,-0.742,-0.675,-0.898,-1.115,-1.157,-0.344,0.374,0.272
0.125,-1.688,-2.381,-0.694,2.034,-0.496,-1.538,-0.707,-0.741,-0.673,-0.898,-1.115,-1.156,-0.344,0.367,0.273
0.126,-1.685,-2.38,-0.695,2.032,-0.494,-1.538,-0.704,-0.739,-0.671,-0.897,-1.115,-1.155,-0.346,0.368,0.273
0.127,-1.684,-2.377,-0.693,2.03,-0.495,-1.535,-0.704,-0.739,-0.671,-0.898,-1.116,-1.154,-0.346,0.375,0.272
0.128,-1.685,-2.376,-0.692,2.03,-0.496,-1.534,-0.704,-0.738,-0.671,-0.899,-1.117,-1.153,-0.345,0.375,0.272
0.129,-1.684,-2.371,-0.687,2.027,-0.498,-1.529,-0.701,-0.737,-0.67,-0.902,-1.117,-1.155,-0.347,0.378,0.27
0.13,-1.685,-2.369,-0.683,2.026,-0.5,-1.526,-0.701,-0.737,-0.671,-0.904,-1.117,-1.155,-0.348,0.376,0.269
0.131,-1.681,-2.368,-0.686,2.025,-0.497,-1.527,-0.701,-0.735,-0.669,-0.904,-1.115,-1.153,-0.345,0.381,0.269
0.132,-1.679,-2.365,-0.687,2.022,-0.495,-1.526,-0.7,-0.731,-0.666,-0.902,-1.113,-1.151,-0.344,0.384,0.269
0.133,-1.673,-2.36,-0.687,2.017,-0.492,-1.524,-0.701,-0.727,-0.665,-0.897,-1.111,-1.149,-0.343,0.382,0.267
0.134,-1.667,-2.353,-0.688,2.01,-0.488,-1.52,-0.701,-0.723,-0.662,-0.893,-1.107,-1.146,-0.34,0.389,0.264
0.135,-1.664,-2.351,-0.687,2.007,-0.488,-1.519,-0.702,-0.721,-0.658,-0.891,-1.105,-1.143,-0.338,0.389,0.265
0.136,-1.657,-2.345,-0.688,2.002,-0.484,-1.516,-0.704,-0.716,-0.655,-0.887,-1.103,-1.142,-0.336,0.387,0.263
0.137,-1.653,-2.342,-0.689,1.998,-0.482,-1.516,-0.702,-0.711,-0.65,-0.881,-1.099,-1.139,-0.333,0.389,0.263
0.138,-1.651,-2.338,-0.688,1.994,-0.481,-1.512,-0.706,-0.712,-0.648,-0.878,-1.097,-1.137,-0.329,0.391,0.264
0.139,-1.649,-2.334,-0.684,1.992,-0.482,-1.51,-0.709,-0.709,-0.648,-0.874,-1.095,-1.136,-0.329,0.392,0.259
0.14,-1.651,-2.333,-0.681,1.992,-0.484,-1.507,-0.709,-0.706,-0.646,-0.87,-1.095,-1.135,-0.326,0.392,0.258
0.141,-1.649,-2.331,-0.682,1.99,-0.482,-1.506,-0.707,-0.704,-0.642,-0.866,-1.091,-1.133,-0.325,0.395,0.256
0.142,-1.645,-2.326,-0.681,1.986,-0.481,-1.504,-0.704,-0.7,-0.639,-0.863,-1.087,-1.131,-0.325,0.406,0.252
0.143,-1.645,-2.322,-0.676,1.984,-0.484,-1.499,-0.7,-0.701,-0.64,-0.863,-1.087,-1.133,-0.327,0.416,0.249
0.144,-1.651,-2.319,-0.668,1.984,-0.49,-1.494,-0.695,-0.701,-0.64,-0.863,-1.087,-1.133,-0.33,0.419,0.247
0.145,-1.656,-2.317,-0.661,1.986,-0.497,-1.489,-0.691,-0.701,-0.643,-0.866,-1.09,-1.135,-0.332,0.422,0.246
0.146,-1.656,-2.318,-0.662,1.988,-0.496,-1.49,-0.685,-0.703,-0.643,-0.866,-1.09,-1.135,-0.333,0.424,0.246
0.147,-1.657,-2.314,-0.658,1.986,-0.498,-1.486,-0.684,-0.701,-0.639,-0.863,-1.089,-1.133,-0.33,0.431,0.245
0.148,-1.656,-2.309,-0.653,1.982,-0.501,-1.482,-0.683,-0.699,-0.637,-0.863,-1.087,-1.131,-0.33,0.442,0.243
0.149,-1.651,-2.304,-0.652,1.977,-0.499,-1.478,-0.686,-0.7,-0.636,-0.864,-1.083,-1.128,-0.329,0.447,0.242
0.15,-1.651,-2.296,-0.645,1.974,-0.502,-1.47,-0.689,-0.697,-0.633,-0.863,-1.079,-1.125,-0.327,0.452,0.243
0.151,-1.654,-2.295,-0.64,1.974,-0.506,-1.468,-0.682,-0.697,-0.633,-0.863,-1.079,-1.125,-0.329,0.463,0.241
0.152,-1.661,-2.299,-0.637,1.98,-0.511,-1.468,-0.671,-0.698,-0.634,-0.864,-1.081,-1.129,-0.334,0.462,0.237
0.153,-1.663,-2.301,-0.638,1.983,-0.512,-1.47,-0.663,-0.698,-0.637,-0.864,-1.083,-1.131,-0.336,0.453,0.234
0.154,-1.662,-2.3,-0.638,1.981,-0.511,-1.469,-0.663,-0.7,-0.638,-0.865,-1.085,-1.132,-0.338,0.453,0.235
0.155,-1.667,-2.303,-0.636,1.984,-0.515,-1.47,-0.662,-0.701,-0.64,-0.865,-1.086,-1.135,-0.339,0.448,0.235
0.156,-1.666,-2.308,-0.641,1.986,-0.512,-1.474,-0.663,-0.705,-0.643,-0.867,-1.087,-1.134,-0.34,0.432,0.237
0.157,-1.664,-2.308,-0.644,1.986,-0.509,-1.476,-0.67,-0.707,-0.645,-0.868,-1.087,-1.135,-0.338,0.429,0.24
0.158,-1.665,-2.312,-0.646,1.988,-0.509,-1.478,-0.677,-0.708,-0.646,-0.865,-1.086,-1.133,-0.336,0.43,0.244
0.159,-1.667,-2.314,-0.648,1.99,-0.508,-1.482,-0.681,-0.712,-0.647,-0.862,-1.087,-1.132,-0.337,0.428,0.245
0.16,-1.663,-2.312,-0.648,1.988,-0.507,-1.48,-0.688,-0.715,-0.649,-0.862,-1.088,-1.133,-0.335,0.43,0.246
0.161,-1.663,-2.311,-0.647,1.987,-0.507,-1.48,-0.694,-0.715,-0.648,-0.86,-1.087,-1.132,-0.333,0.435,0.246
0.162,-1.663,-2.309,-0.646,1.986,-0.508,-1.478,-0.702,-0.717,-0.65,-0.862,-1.088,-1.131,-0.332,0.441,0.248
0.163,-1.665,-2.308,-0.643,1.986,-0.51,-1.476,-0.709,-0.717,-0.65,-0.864,-1.087,-1.132,-0.333,0.44,0.249
0.164,-1.667,-2.308,-0.641,1.987,-0.512,-1.474,-0.713,-0.716,-0.649,-0.864,-1.087,-1.133,-0.332,0.443,0.251
0.165,-1.664,-2.304,-0.641,1.984,-0.511,-1.472,-0.721,-0.718,-0.65,-0.866,-1.084,-1.129,-0.329,0.445,0.253
0.166,-1.665,-2.305,-0.641,1.984,-0.511,-1.473,-0.726,-0.717,-0.65,-0.866,-1.082,-1.129,-0.328,0.445,0.254
0.167,-1.661,-2.304,-0.643,1.983,-0.509,-1.474,-0.733,-0.716,-0.652,-0.867,-1.086,-1.132,-0.328,0.449,0.255
0.168,-1.661,-2.303,-0.642,1.982,-0.508,-1.473,-0.739,-0.715,-0.649,-0.869,-1.085,-1.129,-0.327,0.452,0.255
0.169,-1.657,-2.294,-0.636,1.976,-0.51,-1.465,-0.747,-0.712,-0.643,-0.867,-1.08,-1.123,-0.322,0.452,0.253
0.17,-1.647,-2.28,-0.632,1.964,-0.507,-1.456,-0.761,-0.708,-0.636,-0.863,-1.073,-1.117,-0.316,0.458,0.254
0.171,-1.635,-2.271,-0.635,1.953,-0.499,-1.454,-0.772,-0.702,-0.628,-0.858,-1.067,-1.113,-0.309,0.463,0.254
0.172,-1.63,-2.266,-0.635,1.948,-0.496,-1.451,-0.788,-0.698,-0.625,-0.853,-1.065,-1.111,-0.301,0.464,0.254
0.173,-1.627,-2.264,-0.636,1.946,-0.495,-1.45,-0.796,-0.698,-0.623,-0.85,-1.064,-1.109,-0.297,0.468,0.256
0.174,-1.619,-2.263,-0.643,1.942,-0.487,-1.454,-0.803,-0.699,-0.623,-0.849,-1.062,-1.106,-0.292,0.467,0.258
0.175,-1.621,-2.265,-0.644,1.943,-0.488,-1.454,-0.806,-0.701,-0.623,-0.848,-1.062,-1.106,-0.291,0.469,0.26
0.176,-1.625,-2.272,-0.647,1.948,-0.488,-1.459,-0.807,-0.706,-0.625,-0.849,-1.063,-1.107,-0.291,0.472,0.261
0.177,-1.627,-2.275,-0.647,1.951,-0.489,-1.461,-0.81,-0.711,-0.629,-0.85,-1.065,-1.109,-0.291,0.466,0.26
0.178,-1.633,-2.272,-0.638,1.952,-0.497,-1.454,-0.803,-0.717,-0.632,-0.848,-1.066,-1.111,-0.295,0.467,0.258
0.179,-1.635,-2.273,-0.638,1.954,-0.498,-1.456,-0.8,-0.722,-0.635,-0.848,-1.067,-1.111,-0.294,0.465,0.256
0.18,-1.631,-2.272,-0.641,1.952,-0.494,-1.457,-0.799,-0.723,-0.638,-0.848,-1.067,-1.111,-0.298,0.465,0.256
0.181,-1.631,-2.269,-0.639,1.95,-0.495,-1.454,-0.796,-0.727,-0.639,-0.848,-1.065,-1.111,-0.298,0.474,0.257
0.182,-1.635,-2.273,-0.637,1.954,-0.498,-1.456,-0.791,-0.726,-0.639,-0.848,-1.063,-1.109,-0.29,0.479,0.26
0.183,-1.635,-2.271,-0.636,1.953,-0.499,-1.454,-0.787,-0.728,-0.64,-0.848,-1.065,-1.108,-0.293,0.483,0.259
0.184,-1.637,-2.268,-0.63,1.953,-0.503,-1.449,-0.783,-0.728,-0.64,-0.85,-1.065,-1.109,-0.296,0.483,0.253
0.185,-1.643,-2.268,-0.626,1.956,-0.508,-1.447,-0.777,-0.723,-0.638,-0.85,-1.065,-1.109,-0.295,0.474,0.251
0.186,-1.639,-2.268,-0.629,1.954,-0.504,-1.449,-0.777,-0.723,-0.638,-0.851,-1.065,-1.111,-0.294,0.472,0.249
0.187,-1.635,-2.272,-0.636,1.954,-0.499,-1.454,-0.775,-0.722,-0.635,-0.851,-1.062,-1.111,-0.293,0.476,0.247
0.188,-1.637,-2.276,-0.639,1.957,-0.498,-1.458,-0.772,-0.721,-0.636,-0.855,-1.065,-1.112,-0.294,0.473,0.247
0.189,-1.641,-2.28,-0.639,1.96,-0.5,-1.46,-0.771,-0.72,-0.638,-0.86,-1.067,-1.115,-0.295,0.466,0.246
0.19,-1.643,-2.287,-0.644,1.965,-0.499,-1.466,-0.768,-0.719,-0.637,-0.862,-1.069,-1.115,-0.294,0.459,0.247
0.191,-1.643,-2.294,-0.65,1.969,-0.496,-1.472,-0.767,-0.718,-0.642,-0.866,-1.073,-1.119,-0.295,0.453,0.249
0.192,-1.644,-2.304,-0.659,1.974,-0.492,-1.481,-0.766,-0.72,-0.643,-0.869,-1.077,-1.121,-0.295,0.445,0.251
0.193,-1.647,-2.308,-0.66,1.978,-0.493,-1.484,-0.764,-0.719,-0.642,-0.868,-1.075,-1.12,-0.294,0.445,0.253
0.194,-1.649,-2.309,-0.66,1.98,-0.494,-1.485,-0.763,-0.721,-0.644,-0.871,-1.075,-1.12,-0.294,0.447,0.256
0.195,-1.648,-2.313,-0.665,1.98,-0.49,-1.49,-0.765,-0.725,-0.647,-0.872,-1.077,-1.119,-0.293,0.445,0.26
0.196,-1.647,-2.312,-0.665,1.979,-0.49,-1.488,-0.767,-0.731,-0.653,-0.876,-1.079,-1.122,-0.296,0.447,0.263
0.197,-1.647,-2.312,-0.665,1.98,-0.49,-1.489,-0.767,-0.737,-0.658,-0.879,-1.081,-1.125,-0.3,0.447,0.268
0.198,-1.645,-2.312,-0.668,1.979,-0.488,-1.49,-0.766,-0.738,-0.659,-0.877,-1.079,-1.123,-0.299,0.447,0.27
0.199,-1.644,-2.317,-0.673,1.98,-0.485,-1.496,-0.764,-0.739,-0.66,-0.877,-1.081,-1.124,-0.301,0.441,0.271
0.2,-1.649,-2.327,-0.678,1.988,-0.484,-1.502,-0.757,-0.739,-0.662,-0.876,-1.085,-1.127,-0.303,0.427,0.271
0.201,-1.651,-2.339,-0.687,1.995,-0.481,-1.513,-0.751,-0.736,-0.663,-0.876,-1.087,-1.129,-0.304,0.417,0.272
0.202,-1.655,-2.349,-0.695,2.002,-0.48,-1.522,-0.748,-0.735,-0.663,-0.88,-1.09,-1.132,-0.306,0.408,0.273
0.203,-1.659,-2.36,-0.7,2.01,-0.479,-1.53,-0.742,-0.736,-0.665,-0.885,-1.094,-1.135,-0.308,0.403,0.275
0.204,-1.663,-2.366,-0.703,2.014,-0.479,-1.534,-0.741,-0.739,-0.668,-0.888,-1.097,-1.137,-0.308,0.403,0.278
0.205,-1.669,-2.365,-0.696,2.017,-0.486,-1.53,-0.741,-0.742,-0.671,-0.891,-1.097,-1.137,-0.311,0.404,0.281
0.206,-1.671,-2.36,-0.69,2.015,-0.49,-1.525,-0.745,-0.749,-0.675,-0.895,-1.099,-1.137,-0.312,0.405,0.284
0.207,-1.67,-2.362,-0.692,2.016,-0.488,-1.526,-0.745,-0.753,-0.679,-0.899,-1.101,-1.141,-0.316,0.404,0.285
0.208,-1.67,-2.366,-0.696,2.018,-0.486,-1.531,-0.743,-0.753,-0.68,-0.901,-1.101,-1.141,-0.318,0.398,0.287
0.209,-1.671,-2.367,-0.696,2.019,-0.487,-1.532,-0.741,-0.756,-0.683,-0.906,-1.104,-1.143,-0.319,0.391,0.289
0.21,-1.671,-2.371,-0.7,2.021,-0.485,-1.535,-0.738,-0.757,-0.685,-0.91,-1.106,-1.143,-0.319,0.387,0.292
0.211,-1.672,-2.378,-0.707,2.026,-0.482,-1.543,-0.739,-0.754,-0.684,-0.911,-1.109,-1.146,-0.319,0.38,0.291
0.212,-1.676,-2.382,-0.707,2.03,-0.484,-1.544,-0.738,-0.756,-0.686,-0.913,-1.111,-1.148,-0.321,0.376,0.29
0.213,-1.677,-2.38,-0.703,2.029,-0.487,-1.542,-0.736,-0.756,-0.685,-0.911,-1.111,-1.147,-0.321,0.378,0.29
0.214,-1.681,-2.377,-0.697,2.029,-0.491,-1.537,-0.737,-0.756,-0.685,-0.909,-1.111,-1.147,-0.323,0.382,0.287
0.215,-1.686,-2.376,-0.69,2.031,-0.497,-1.532,-0.734,-0.755,-0.684,-0.907,-1.11,-1.149,-0.325,0.387,0.283
0.216,-1.691,-2.377,-0.686,2.034,-0.502,-1.532,-0.73,-0.752,-0.683,-0.905,-1.111,-1.15,-0.325,0.388,0.281
0.217,-1.697,-2.38,-0.683,2.038,-0.506,-1.532,-0.727,-0.752,-0.683,-0.905,-1.111,-1.151,-0.328,0.39,0.283
0.218,-1.704,-2.382,-0.677,2.043,-0.513,-1.53,-0.725,-0.75,-0.683,-0.903,-1.111,-1.153,-0.331,0.386,0.281
0.219,-1.711,-2.385,-0.675,2.048,-0.517,-1.53,-0.724,-0.75,-0.686,-0.902,-1.113,-1.156,-0.333,0.383,0.278
0.22,-1.713,-2.392,-0.678,2.052,-0.517,-1.534,-0.722,-0.75,-0.686,-0.904,-1.115,-1.159,-0.337,0.383,0.279
0.221,-1.714,-2.395,-0.681,2.054,-0.516,-1.538,-0.72,-0.753,-0.689,-0.906,-1.118,-1.161,-0.338,0.376,0.28
0.222,-1.713,-2.394,-0.681,2.054,-0.515,-1.538,-0.72,-0.756,-0.692,-0.909,-1.121,-1.164,-0.339,0.374,0.28
0.223,-1.712,-2.394,-0.681,2.054,-0.515,-1.538,-0.721,-0.76,-0.695,-0.912,-1.123,-1.167,-0.342,0.376,0.28
0.224,-1.714,-2.397,-0.682,2.056,-0.515,-1.54,-0.721,-0.763,-0.697,-0.915,-1.123,-1.168,-0.342,0.378,0.281
0.225,-1.714,-2.398,-0.684,2.057,-0.514,-1.541,-0.722,-0.763,-0.698,-0.915,-1.123,-1.168,-0.342,0.376,0.282
0.226,-1.713,-2.4,-0.686,2.056,-0.512,-1.543,-0.722,-0.764,-0.697,-0.916,-1.127,-1.167,-0.342,0.369,0.283
0.227,-1.714,-2.402,-0.689,2.058,-0.512,-1.546,-0.72,-0.763,-0.695,-0.917,-1.126,-1.167,-0.341,0.368,0.284
0.228,-1.715,-2.401,-0.687,2.058,-0.513,-1.544,-0.721,-0.763,-0.696,-0.918,-1.126,-1.167,-0.343,0.365,0.284
0.229,-1.712,-2.401,-0.69,2.057,-0.51,-1.546,-0.722,-0.763,-0.696,-0.92,-1.127,-1.167,-0.343,0.365,0.285
0.23,-1.708,-2.401,-0.693,2.055,-0.507,-1.546,-0.723,-0.763,-0.696,-0.924,-1.125,-1.167,-0.343,0.364,0.286
0.231,-1.708,-2.398,-0.69,2.053,-0.508,-1.544,-0.723,-0.761,-0.694,-0.924,-1.125,-1.166,-0.342,0.362,0.287
0.232,-1.702,-2.398,-0.696,2.05,-0.502,-1.547,-0.723,-0.761,-0.694,-0.922,-1.125,-1.165,-0.341,0.367,0.287
0.233,-1.705,-2.401,-0.696,2.053,-0.504,-1.548,-0.723,-0.764,-0.696,-0.924,-1.127,-1.165,-0.343,0.359,0.288
0.234,-1.71,-2.401,-0.692,2.055,-0.508,-1.546,-0.725,-0.763,-0.695,-0.921,-1.127,-1.166,-0.341,0.359,0.288
0.235,-1.707,-2.401,-0.695,2.054,-0.505,-1.548,-0.725,-0.762,-0.693,-0.918,-1.125,-1.164,-0.339,0.366,0.288
0.236,-1.706,-2.398,-0.693,2.052,-0.506,-1.546,-0.725,-0.764,-0.693,-0.919,-1.127,-1.165,-0.34,0.364,0.287
0.237,-1.704,-2.396,-0.692,2.05,-0.506,-1.544,-0.726,-0.764,-0.695,-0.919,-1.127,-1.165,-0.34,0.363,0.286
0.238,-1.704,-2.394,-0.691,2.049,-0.505,-1.543,-0.724,-0.761,-0.692,-0.914,-1.125,-1.163,-0.339,0.367,0.285
0.239,-1.703,-2.395,-0.692,2.049,-0.505,-1.543,-0.723,-0.759,-0.692,-0.91,-1.123,-1.163,-0.339,0.366,0.284
0.24,-1.706,-2.398,-0.693,2.052,-0.506,-1.545,-0.723,-0.76,-0.693,-0.909,-1.123,-1.162,-0.34,0.36,0.283
0.241,-1.706,-2.397,-0.692,2.052,-0.507,-1.544,-0.723,-0.76,-0.691,-0.907,-1.123,-1.161,-0.339,0.355,0.283
0.242,-1.703,-2.397,-0.695,2.05,-0.504,-1.546,-0.723,-0.761,-0.692,-0.906,-1.123,-1.163,-0.339,0.353,0.283
0.243,-1.702,-2.396,-0.695,2.049,-0.503,-1.545,-0.724,-0.759,-0.691,-0.908,-1.124,-1.163,-0.339,0.357,0.282
0.244,-1.701,-2.394,-0.693,2.047,-0.503,-1.544,-0.724,-0.757,-0.689,-0.908,-1.123,-1.162,-0.337,0.362,0.283
0.245,-1.704,-2.397,-0.694,2.051,-0.505,-1.546,-0.723,-0.757,-0.689,-0.909,-1.121,-1.163,-0.339,0.362,0.283
0.246,-1.71,-2.401,-0.691,2.055,-0.509,-1.546,-0.723,-0.757,-0.69,-0.909,-1.121,-1.163,-0.34,0.36,0.282
0.247,-1.71,-2.398,-0.688,2.054,-0.51,-1.544,-0.721,-0.756,-0.689,-0.91,-1.121,-1.163,-0.34,0.362,0.283
0.248,-1.708,-2.398,-0.69,2.053,-0.509,-1.544,-0.722,-0.756,-0.69,-0.913,-1.122,-1.163,-0.339,0.357,0.284
0.249,-1.708,-2.397,-0.69,2.053,-0.509,-1.544,-0.722,-0.754,-0.69,-0.914,-1.121,-1.163,-0.339,0.363,0.284
0.25,-1.707,-2.394,-0.688,2.05,-0.509,-1.54,-0.721,-0.756,-0.69,-0.917,-1.119,-1.163,-0.341,0.372,0.284
0.251,-1.708,-2.397,-0.689,2.053,-0.509,-1.542,-0.721,-0.76,-0.693,-0.921,-1.12,-1.164,-0.341,0.361,0.285
0.252,-1.711,-2.398,-0.688,2.054,-0.511,-1.543,-0.72,-0.758,-0.691,-0.919,-1.121,-1.163,-0.342,0.358,0.285
0.253,-1.71,-2.398,-0.688,2.054,-0.51,-1.543,-0.72,-0.759,-0.691,-0.917,-1.121,-1.164,-0.342,0.359,0.283
0.254,-1.708,-2.398,-0.691,2.054,-0.508,-1.544,-0.72,-0.759,-0.69,-0.915,-1.119,-1.162,-0.338,0.359,0.282
0.255,-1.71,-2.398,-0.688,2.054,-0.511,-1.542,-0.72,-0.758,-0.689,-0.914,-1.119,-1.161,-0.339,0.36,0.282
0.256,-1.712,-2.4,-0.689,2.056,-0.511,-1.544,-0.719,-0.76,-0.69,-0.916,-1.12,-1.165,-0.341,0.357,0.282
0.257,-1.712,-2.401,-0.689,2.057,-0.511,-1.545,-0.718,-0.758,-0.688,-0.912,-1.119,-1.163,-0.34,0.36,0.282
0.258,-1.712,-2.398,-0.686,2.054,-0.512,-1.542,-0.717,-0.756,-0.685,-0.907,-1.116,-1.161,-0.337,0.367,0.281
0.259,-1.712,-2.398,-0.686,2.054,-0.512,-1.542,-0.717,-0.755,-0.683,-0.903,-1.118,-1.163,-0.338,0.366,0.278
0.26,-1.712,-2.398,-0.686,2.055,-0.512,-1.542,-0.719,-0.755,-0.683,-0.903,-1.119,-1.164,-0.338,0.364,0.276
0.261,-1.714,-2.398,-0.684,2.056,-0.514,-1.542,-0.719,-0.752,-0.681,-0.901,-1.118,-1.163,-0.336,0.359,0.276
0.262,-1.715,-2.398,-0.683,2.057,-0.515,-1.541,-0.716,-0.745,-0.674,-0.897,-1.115,-1.161,-0.336,0.355,0.273
0.263,-1.716,-2.401,-0.685,2.058,-0.514,-1.544,-0.714,-0.737,-0.667,-0.896,-1.115,-1.163,-0.337,0.356,0.269
0.264,-1.714,-2.401,-0.685,2.058,-0.513,-1.543,-0.712,-0.722,-0.654,-0.89,-1.115,-1.163,-0.336,0.356,0.263
0.265,-1.716,-2.404,-0.688,2.059,-0.513,-1.546,-0.707,-0.705,-0.641,-0.881,-1.115,-1.163,-0.335,0.353,0.257
0.266,-1.712,-2.409,-0.697,2.061,-0.507,-1.553,-0.703,-0.687,-0.627,-0.873,-1.115,-1.164,-0.336,0.349,0.249
0.267,-1.708,-2.408,-0.699,2.058,-0.504,-1.553,-0.698,-0.661,-0.607,-0.862,-1.115,-1.167,-0.335,0.348,0.236
0.268,-1.708,-2.409,-0.701,2.059,-0.503,-1.555,-0.689,-0.631,-0.584,-0.851,-1.12,-1.172,-0.337,0.344,0.223
0.269,-1.7,-2.415,-0.715,2.058,-0.492,-1.565,-0.682,-0.601,-0.559,-0.838,-1.121,-1.173,-0.337,0.335,0.209
0.27,-1.699,-2.421,-0.722,2.06,-0.488,-1.571,-0.675,-0.574,-0.536,-0.822,-1.121,-1.175,-0.335,0.328,0.197
0.271,-1.696,-2.418,-0.722,2.058,-0.487,-1.57,-0.673,-0.556,-0.515,-0.805,-1.118,-1.174,-0.333,0.328,0.186
0.272,-1.692,-2.419,-0.727,2.055,-0.482,-1.573,-0.672,-0.541,-0.499,-0.788,-1.114,-1.171,-0.329,0.323,0.178
0.273,-1.692,-2.418,-0.727,2.055,-0.481,-1.573,-0.671,-0.531,-0.485,-0.769,-1.111,-1.171,-0.328,0.321,0.167
0.274,-1.683,-2.406,-0.723,2.045,-0.48,-1.565,-0.677,-0.54,-0.474,-0.748,-1.102,-1.163,-0.323,0.333,0.16
0.275,-1.672,-2.396,-0.724,2.034,-0.473,-1.56,-0.688,-0.539,-0.461,-0.726,-1.091,-1.155,-0.302,0.342,0.16
0.276,-1.659,-2.389,-0.73,2.024,-0.464,-1.56,-0.692,-0.511,-0.432,-0.7,-1.082,-1.148,-0.287,0.344,0.151
0.277,-1.652,-2.385,-0.733,2.018,-0.459,-1.559,-0.686,-0.478,-0.399,-0.667,-1.074,-1.142,-0.283,0.339,0.134
0.278,-1.638,-2.381,-0.743,2.01,-0.447,-1.562,-0.692,-0.447,-0.364,-0.633,-1.059,-1.131,-0.267,0.34,0.124
0.279,-1.621,-2.375,-0.754,1.998,-0.433,-1.565,-0.698,-0.411,-0.326,-0.593,-1.042,-1.118,-0.248,0.344,0.113
0.28,-1.605,-2.362,-0.757,1.984,-0.423,-1.56,-0.7,-0.367,-0.281,-0.547,-1.024,-1.107,-0.23,0.348,0.099
0.281,-1.581,-2.349,-0.768,1.964,-0.406,-1.558,-0.714,-0.343,-0.256,-0.513,-1.002,-1.087,-0.205,0.351,0.097
0.282,-1.567,-2.334,-0.767,1.95,-0.4,-1.55,-0.727,-0.334,-0.238,-0.485,-0.98,-1.069,-0.185,0.353,0.095
0.283,-1.555,-2.317,-0.762,1.937,-0.397,-1.54,-0.739,-0.323,-0.221,-0.462,-0.957,-1.049,-0.163,0.362,0.098
0.284,-1.541,-2.297,-0.756,1.919,-0.393,-1.527,-0.75,-0.323,-0.209,-0.435,-0.929,-1.027,-0.14,0.373,0.101
0.285,-1.533,-2.281,-0.748,1.907,-0.393,-1.514,-0.763,-0.344,-0.203,-0.409,-0.906,-1.008,-0.12,0.385,0.101
0.286,-1.528,-2.276,-0.748,1.902,-0.39,-1.512,-0.77,-0.385,-0.224,-0.401,-0.889,-0.996,-0.105,0.392,0.109
0.287,-1.522,-2.257,-0.736,1.889,-0.394,-1.496,-0.781,-0.437,-0.243,-0.384,-0.865,-0.98,-0.089,0.407,0.118
0.288,-1.51,-2.233,-0.723,1.871,-0.394,-1.478,-0.81,-0.518,-0.274,-0.358,-0.828,-0.95,-0.061,0.429,0.15
0.289,-1.505,-2.22,-0.716,1.863,-0.395,-1.468,-0.836,-0.624,-0.334,-0.352,-0.799,-0.924,-0.04,0.439,0.185
0.29,-1.494,-2.199,-0.705,1.846,-0.395,-1.452,-0.868,-0.742,-0.389,-0.35,-0.768,-0.896,-0.016,0.463,0.208
0.291,-1.472,-2.168,-0.697,1.82,-0.387,-1.433,-0.909,-0.858,-0.443,-0.344,-0.722,-0.853,0.024,0.486,0.238
0.292,-1.456,-2.139,-0.683,1.798,-0.387,-1.411,-0.952,-0.975,-0.518,-0.349,-0.678,-0.813,0.059,0.506,0.278
0.293,-1.444,-2.119,-0.674,1.782,-0.385,-1.397,-0.987,-1.085,-0.603,-0.364,-0.646,-0.782,0.085,0.522,0.327
0.294,-1.43,-2.095,-0.665,1.762,-0.382,-1.381,-1.022,-1.19,-0.696,-0.385,-0.608,-0.744,0.117,0.537,0.379
0.295,-1.419,-2.062,-0.642,1.74,-0.388,-1.352,-1.06,-1.3,-0.797,-0.411,-0.565,-0.703,0.147,0.572,0.423
0.296,-1.405,-2.034,-0.629,1.719,-0.388,-1.331,-1.091,-1.383,-0.872,-0.413,-0.516,-0.66,0.182,0.603,0.479
0.297,-1.383,-2.004,-0.622,1.693,-0.381,-1.313,-1.132,-1.482,-0.959,-0.42,-0.47,-0.616,0.222,0.631,0.558
0.298,-1.368,-1.973,-0.605,1.671,-0.382,-1.289,-1.179,-1.597,-1.061,-0.45,-0.434,-0.582,0.249,0.653,0.631
0.299,-1.371,-1.933,-0.561,1.652,-0.405,-1.248,-1.218,-1.683,-1.141,-0.467,-0.393,-0.548,0.272,0.691,0.697
0.3,-1.375,-1.89,-0.515,1.633,-0.429,-1.202,-1.263,-1.767,-1.221,-0.489,-0.355,-0.515,0.293,0.738,0.763
0.301,-1.372,-1.851,-0.479,1.611,-0.446,-1.165,-1.313,-1.859,-1.31,-0.524,-0.32,-0.483,0.314,0.777,0.83
0.302,-1.376,-1.816,-0.44,1.596,-0.468,-1.128,-1.353,-1.962,-1.409,-0.572,-0.293,-0.458,0.329,0.812,0.898
0.303,-1.379,-1.782,-0.404,1.581,-0.487,-1.093,-1.399,-2.064,-1.507,-0.621,-0.264,-0.427,0.346,0.844,0.972
0.304,-1.391,-1.744,-0.353,1.567,-0.518,-1.048,-1.446,-2.139,-1.593,-0.663,-0.234,-0.399,0.36,0.885,1.033
0.305,-1.405,-1.712,-0.307,1.558,-0.548,-1.009,-1.484,-2.2,-1.67,-0.713,-0.217,-0.38,0.364,0.922,1.08
0.306,-1.419,-1.683,-0.265,1.55,-0.577,-0.974,-1.524,-2.262,-1.736,-0.764,-0.209,-0.368,0.36,0.959,1.123
0.307,-1.435,-1.677,-0.242,1.556,-0.596,-0.96,-1.54,-2.287,-1.773,-0.808,-0.225,-0.371,0.345,0.976,1.159
0.308,-1.452,-1.7,-0.247,1.577,-0.602,-0.974,-1.532,-2.265,-1.766,-0.84,-0.255,-0.378,0.328,0.973,1.19
0.309,-1.47,-1.752,-0.282,1.611,-0.594,-1.017,-1.514,-2.204,-1.729,-0.865,-0.307,-0.4,0.299,0.943,1.216
0.31,-1.473,-1.798,-0.325,1.635,-0.574,-1.062,-1.507,-2.136,-1.688,-0.883,-0.358,-0.426,0.275,0.911,1.232
0.311,-1.492,-1.835,-0.344,1.664,-0.574,-1.089,-1.49,-2.104,-1.688,-0.964,-0.424,-0.463,0.232,0.898,1.252
0.312,-1.528,-1.915,-0.387,1.722,-0.571,-1.151,-1.444,-2.067,-1.706,-1.086,-0.541,-0.538,0.153,0.841,1.277
0.313,-1.573,-1.994,-0.421,1.784,-0.576,-1.208,-1.395,-2.045,-1.727,-1.188,-0.652,-0.618,0.073,0.78,1.294
0.314,-1.611,-2.075,-0.464,1.843,-0.573,-1.27,-1.333,-2.014,-1.743,-1.286,-0.745,-0.69,0.004,0.715,1.305
0.315,-1.634,-2.159,-0.525,1.897,-0.554,-1.342,-1.276,-1.958,-1.744,-1.375,-0.835,-0.76,-0.062,0.641,1.304
0.316,-1.649,-2.216,-0.567,1.933,-0.54,-1.391,-1.251,-1.915,-1.736,-1.435,-0.901,-0.815,-0.111,0.595,1.297
0.317,-1.672,-2.253,-0.582,1.962,-0.545,-1.417,-1.238,-1.871,-1.729,-1.494,-0.959,-0.864,-0.155,0.568,1.29
0.318,-1.702,-2.274,-0.572,1.988,-0.565,-1.423,-1.236,-1.849,-1.742,-1.567,-1.02,-0.916,-0.207,0.56,1.284
0.319,-1.727,-2.285,-0.558,2.006,-0.584,-1.422,-1.24,-1.834,-1.744,-1.606,-1.06,-0.956,-0.244,0.554,1.27
0.32,-1.759,-2.297,-0.538,2.028,-0.61,-1.418,-1.223,-1.812,-1.74,-1.63,-1.097,-0.995,-0.284,0.554,1.239
0.321,-1.784,-2.31,-0.527,2.047,-0.628,-1.419,-1.196,-1.768,-1.696,-1.61,-1.127,-1.032,-0.319,0.554,1.192
0.322,-1.798,-2.32,-0.521,2.059,-0.638,-1.421,-1.167,-1.706,-1.621,-1.557,-1.137,-1.054,-0.335,0.549,1.139
0.323,-1.802,-2.33,-0.529,2.066,-0.635,-1.43,-1.151,-1.656,-1.56,-1.516,-1.15,-1.073,-0.345,0.535,1.097
0.324,-1.798,-2.341,-0.543,2.069,-0.627,-1.442,-1.137,-1.605,-1.496,-1.472,-1.158,-1.089,-0.349,0.518,1.052
0.325,-1.796,-2.351,-0.555,2.073,-0.62,-1.453,-1.115,-1.549,-1.431,-1.427,-1.157,-1.096,-0.352,0.51,1.003
0.326,-1.786,-2.358,-0.572,2.072,-0.607,-1.465,-1.095,-1.496,-1.368,-1.381,-1.157,-1.103,-0.351,0.496,0.958
0.327,-1.77,-2.361,-0.591,2.066,-0.589,-1.476,-1.078,-1.444,-1.311,-1.341,-1.155,-1.108,-0.346,0.483,0.916
0.328,-1.76,-2.363,-0.603,2.062,-0.578,-1.482,-1.063,-1.4,-1.259,-1.303,-1.149,-1.11,-0.341,0.481,0.877
0.329,-1.752,-2.362,-0.611,2.057,-0.57,-1.487,-1.044,-1.361,-1.212,-1.27,-1.145,-1.113,-0.338,0.48,0.837
0.33,-1.742,-2.359,-0.617,2.05,-0.562,-1.488,-1.024,-1.315,-1.167,-1.236,-1.137,-1.111,-0.332,0.476,0.794
0.331,-1.741,-2.353,-0.612,2.047,-0.565,-1.482,-0.997,-1.257,-1.116,-1.201,-1.13,-1.111,-0.33,0.474,0.75
0.332,-1.738,-2.349,-0.611,2.043,-0.563,-1.48,-0.972,-1.204,-1.071,-1.169,-1.128,-1.115,-0.329,0.473,0.707
0.333,-1.734,-2.349,-0.616,2.042,-0.558,-1.482,-0.947,-1.151,-1.028,-1.132,-1.117,-1.112,-0.323,0.464,0.668
0.334,-1.724,-2.351,-0.627,2.037,-0.547,-1.489,-0.922,-1.101,-0.987,-1.102,-1.109,-1.11,-0.319,0.46,0.63
0.335,-1.718,-2.352,-0.633,2.035,-0.542,-1.492,-0.903,-1.067,-0.958,-1.08,-1.107,-1.115,-0.318,0.457,0.598
0.336,-1.718,-2.349,-0.631,2.033,-0.543,-1.49,-0.883,-1.036,-0.93,-1.06,-1.107,-1.117,-0.32,0.456,0.57
0.337,-1.716,-2.342,-0.626,2.03,-0.544,-1.484,-0.867,-1.012,-0.906,-1.042,-1.103,-1.117,-0.321,0.457,0.54
0.338,-1.718,-2.336,-0.617,2.026,-0.55,-1.476,-0.851,-0.991,-0.883,-1.024,-1.099,-1.119,-0.324,0.459,0.509
0.339,-1.722,-2.327,-0.606,2.025,-0.557,-1.466,-0.838,-0.969,-0.86,-1.003,-1.095,-1.119,-0.327,0.466,0.478
0.34,-1.722,-2.32,-0.599,2.021,-0.561,-1.46,-0.825,-0.947,-0.837,-0.984,-1.089,-1.119,-0.327,0.476,0.449
0.341,-1.718,-2.314,-0.596,2.017,-0.561,-1.456,-0.813,-0.923,-0.814,-0.968,-1.085,-1.119,-0.328,0.478,0.425
0.342,-1.717,-2.308,-0.592,2.013,-0.562,-1.45,-0.804,-0.902,-0.793,-0.954,-1.079,-1.119,-0.327,0.479,0.405
0.343,-1.713,-2.304,-0.592,2.009,-0.56,-1.448,-0.795,-0.881,-0.772,-0.94,-1.077,-1.118,-0.325,0.481,0.383
0.344,-1.712,-2.3,-0.589,2.006,-0.561,-1.444,-0.786,-0.861,-0.752,-0.925,-1.075,-1.118,-0.324,0.478,0.362
0.345,-1.708,-2.296,-0.588,2.002,-0.559,-1.442,-0.778,-0.844,-0.736,-0.913,-1.071,-1.119,-0.323,0.474,0.344
0.346,-1.704,-2.295,-0.591,2,-0.556,-1.442,-0.771,-0.829,-0.721,-0.904,-1.073,-1.119,-0.322,0.47,0.33
0.347,-1.704,-2.294,-0.59,2,-0.557,-1.442,-0.765,-0.817,-0.709,-0.897,-1.071,-1.119,-0.322,0.468,0.321
0.348,-1.701,-2.297,-0.596,1.999,-0.552,-1.446,-0.761,-0.807,-0.701,-0.894,-1.071,-1.121,-0.323,0.464,0.313
0.349,-1.702,-2.301,-0.6,2.002,-0.55,-1.45,-0.758,-0.797,-0.694,-0.891,-1.073,-1.121,-0.321,0.458,0.307
0.35,-1.698,-2.303,-0.605,2.001,-0.546,-1.454,-0.752,-0.789,-0.686,-0.888,-1.071,-1.121,-0.319,0.454,0.302
0.351,-1.7,-2.308,-0.609,2.004,-0.545,-1.458,-0.746,-0.783,-0.68,-0.888,-1.072,-1.123,-0.321,0.45,0.298
0.352,-1.699,-2.309,-0.611,2.005,-0.543,-1.46,-0.743,-0.776,-0.673,-0.882,-1.071,-1.123,-0.319,0.449,0.293
0.353,-1.692,-2.308,-0.615,2,-0.538,-1.461,-0.74,-0.768,-0.666,-0.876,-1.069,-1.123,-0.316,0.45,0.288
0.354,-1.693,-2.309,-0.617,2.002,-0.537,-1.463,-0.735,-0.761,-0.661,-0.872,-1.069,-1.123,-0.316,0.447,0.283
0.355,-1.691,-2.311,-0.62,2.001,-0.535,-1.466,-0.732,-0.755,-0.656,-0.867,-1.067,-1.123,-0.315,0.441,0.277
0.356,-1.687,-2.307,-0.62,1.997,-0.533,-1.464,-0.73,-0.751,-0.652,-0.864,-1.068,-1.125,-0.315,0.442,0.276
0.357,-1.682,-2.303,-0.621,1.992,-0.53,-1.462,-0.728,-0.745,-0.648,-0.858,-1.067,-1.121,-0.312,0.45,0.274
0.358,-1.68,-2.304,-0.624,1.992,-0.527,-1.464,-0.724,-0.74,-0.642,-0.853,-1.065,-1.121,-0.312,0.449,0.271
0.359,-1.679,-2.304,-0.625,1.992,-0.526,-1.465,-0.723,-0.738,-0.64,-0.849,-1.066,-1.121,-0.312,0.443,0.267
0.36,-1.679,-2.303,-0.625,1.991,-0.526,-1.464,-0.722,-0.733,-0.636,-0.844,-1.065,-1.121,-0.312,0.44,0.264
0.361,-1.681,-2.305,-0.624,1.993,-0.528,-1.464,-0.718,-0.732,-0.634,-0.843,-1.066,-1.123,-0.314,0.439,0.262
0.362,-1.679,-2.305,-0.625,1.992,-0.526,-1.465,-0.719,-0.728,-0.632,-0.841,-1.067,-1.123,-0.312,0.439,0.258
0.363,-1.677,-2.303,-0.625,1.99,-0.525,-1.464,-0.717,-0.725,-0.629,-0.841,-1.067,-1.123,-0.314,0.434,0.257
0.364,-1.675,-2.301,-0.626,1.988,-0.523,-1.464,-0.715,-0.722,-0.625,-0.84,-1.065,-1.123,-0.313,0.438,0.254
0.365,-1.675,-2.304,-0.63,1.99,-0.522,-1.467,-0.714,-0.718,-0.622,-0.839,-1.065,-1.122,-0.311,0.433,0.252
0.366,-1.677,-2.306,-0.629,1.992,-0.523,-1.468,-0.713,-0.717,-0.621,-0.84,-1.067,-1.123,-0.313,0.431,0.25
0.367,-1.675,-2.304,-0.63,1.99,-0.521,-1.468,-0.713,-0.713,-0.618,-0.84,-1.068,-1.123,-0.312,0.433,0.247
0.368,-1.675,-2.305,-0.63,1.99,-0.522,-1.468,-0.712,-0.714,-0.616,-0.841,-1.069,-1.124,-0.314,0.43,0.246
0.369,-1.675,-2.303,-0.627,1.989,-0.523,-1.465,-0.712,-0.711,-0.615,-0.842,-1.069,-1.125,-0.313,0.427,0.244
0.37,-1.668,-2.293,-0.625,1.98,-0.52,-1.46,-0.713,-0.707,-0.61,-0.843,-1.069,-1.125,-0.311,0.431,0.24
0.371,-1.663,-2.288,-0.626,1.976,-0.518,-1.458,-0.713,-0.704,-0.607,-0.841,-1.067,-1.125,-0.311,0.44,0.236
0.372,-1.667,-2.295,-0.627,1.981,-0.519,-1.46,-0.709,-0.702,-0.604,-0.839,-1.063,-1.123,-0.31,0.431,0.236
0.373,-1.669,-2.292,-0.624,1.98,-0.522,-1.458,-0.708,-0.7,-0.601,-0.837,-1.063,-1.122,-0.31,0.435,0.234
0.374,-1.664,-2.288,-0.625,1.976,-0.519,-1.456,-0.708,-0.697,-0.6,-0.834,-1.061,-1.121,-0.31,0.439,0.232
0.375,-1.663,-2.287,-0.624,1.975,-0.519,-1.456,-0.707,-0.696,-0.596,-0.832,-1.059,-1.121,-0.309,0.433,0.231
0.376,-1.661,-2.284,-0.624,1.972,-0.518,-1.454,-0.707,-0.693,-0.596,-0.832,-1.059,-1.121,-0.308,0.435,0.228
0.377,-1.66,-2.284,-0.625,1.972,-0.517,-1.454,-0.705,-0.689,-0.593,-0.829,-1.058,-1.121,-0.307,0.434,0.229
0.378,-1.662,-2.284,-0.622,1.973,-0.519,-1.453,-0.703,-0.688,-0.59,-0.823,-1.058,-1.12,-0.307,0.429,0.226
0.379,-1.659,-2.284,-0.625,1.972,-0.516,-1.455,-0.703,-0.686,-0.589,-0.819,-1.057,-1.119,-0.307,0.428,0.225
0.38,-1.657,-2.284,-0.627,1.97,-0.514,-1.456,-0.703,-0.685,-0.589,-0.816,-1.058,-1.119,-0.308,0.429,0.224
0.381,-1.657,-2.285,-0.628,1.971,-0.514,-1.456,-0.703,-0.684,-0.587,-0.813,-1.056,-1.118,-0.306,0.43,0.224
0.382,-1.653,-2.283,-0.629,1.968,-0.512,-1.456,-0.703,-0.684,-0.585,-0.813,-1.056,-1.119,-0.306,0.432,0.223
0.383,-1.654,-2.281,-0.627,1.968,-0.513,-1.454,-0.702,-0.682,-0.583,-0.811,-1.056,-1.118,-0.307,0.433,0.221
0.384,-1.655,-2.279,-0.624,1.966,-0.515,-1.451,-0.701,-0.68,-0.58,-0.81,-1.054,-1.115,-0.304,0.433,0.22
0.385,-1.654,-2.276,-0.623,1.966,-0.515,-1.45,-0.701,-0.677,-0.579,-0.809,-1.052,-1.116,-0.304,0.429,0.217
0.386,-1.655,-2.279,-0.624,1.968,-0.515,-1.452,-0.699,-0.679,-0.579,-0.81,-1.055,-1.117,-0.305,0.43,0.221
0.387,-1.651,-2.277,-0.626,1.964,-0.512,-1.452,-0.698,-0.678,-0.579,-0.808,-1.054,-1.115,-0.303,0.428,0.221
0.388,-1.649,-2.278,-0.629,1.964,-0.509,-1.454,-0.695,-0.674,-0.574,-0.804,-1.05,-1.113,-0.302,0.43,0.22
0.389,-1.645,-2.273,-0.628,1.959,-0.508,-1.451,-0.695,-0.67,-0.569,-0.803,-1.049,-1.111,-0.302,0.44,0.22
0.39,-1.64,-2.268,-0.627,1.954,-0.506,-1.448,-0.697,-0.668,-0.568,-0.805,-1.048,-1.111,-0.302,0.441,0.217
0.391,-1.637,-2.264,-0.627,1.951,-0.504,-1.446,-0.698,-0.67,-0.569,-0.805,-1.048,-1.111,-0.3,0.439,0.217
0.392,-1.636,-2.264,-0.627,1.95,-0.503,-1.446,-0.697,-0.67,-0.568,-0.804,-1.046,-1.109,-0.299,0.438,0.218
0.393,-1.635,-2.264,-0.628,1.95,-0.503,-1.446,-0.696,-0.666,-0.566,-0.8,-1.044,-1.108,-0.298,0.44,0.216
0.394,-1.631,-2.26,-0.627,1.946,-0.501,-1.444,-0.699,-0.665,-0.564,-0.797,-1.042,-1.107,-0.297,0.438,0.214
0.395,-1.628,-2.257,-0.629,1.942,-0.499,-1.443,-0.7,-0.667,-0.561,-0.796,-1.042,-1.106,-0.295,0.433,0.213
0.396,-1.627,-2.258,-0.631,1.942,-0.497,-1.444,-0.697,-0.664,-0.558,-0.792,-1.04,-1.105,-0.295,0.433,0.212
0.397,-1.626,-2.259,-0.632,1.942,-0.496,-1.446,-0.695,-0.663,-0.557,-0.793,-1.038,-1.105,-0.298,0.433,0.212
0.398,-1.625,-2.255,-0.63,1.94,-0.496,-1.443,-0.696,-0.662,-0.556,-0.79,-1.036,-1.104,-0.296,0.436,0.211
0.399,-1.623,-2.255,-0.632,1.938,-0.494,-1.444,-0.695,-0.662,-0.553,-0.784,-1.034,-1.102,-0.294,0.433,0.209
0.4,-1.623,-2.26,-0.636,1.941,-0.493,-1.448,-0.694,-0.662,-0.554,-0.782,-1.035,-1.103,-0.295,0.431,0.209
0.401,-1.621,-2.26,-0.639,1.941,-0.49,-1.45,-0.694,-0.658,-0.551,-0.779,-1.034,-1.1,-0.294,0.435,0.207
0.402,-1.619,-2.256,-0.636,1.938,-0.491,-1.446,-0.695,-0.655,-0.547,-0.774,-1.03,-1.098,-0.292,0.435,0.205
0.403,-1.621,-2.252,-0.63,1.937,-0.495,-1.442,-0.693,-0.657,-0.548,-0.776,-1.03,-1.098,-0.293,0.432,0.206
0.404,-1.612,-2.244,-0.632,1.928,-0.489,-1.438,-0.698,-0.657,-0.544,-0.776,-1.028,-1.097,-0.29,0.431,0.206
0.405,-1.613,-2.241,-0.629,1.927,-0.491,-1.435,-0.699,-0.655,-0.543,-0.776,-1.028,-1.097,-0.291,0.438,0.205
0.406,-1.618,-2.248,-0.63,1.933,-0.493,-1.44,-0.695,-0.656,-0.544,-0.78,-1.03,-1.099,-0.294,0.438,0.206
0.407,-1.613,-2.247,-0.634,1.929,-0.488,-1.44,-0.696,-0.654,-0.541,-0.779,-1.03,-1.098,-0.292,0.439,0.205
0.408,-1.615,-2.249,-0.634,1.932,-0.49,-1.442,-0.693,-0.651,-0.54,-0.78,-1.028,-1.097,-0.291,0.436,0.206
0.409,-1.617,-2.248,-0.632,1.933,-0.491,-1.44,-0.696,-0.652,-0.54,-0.785,-1.028,-1.097,-0.293,0.433,0.205
0.41,-1.613,-2.244,-0.63,1.929,-0.491,-1.437,-0.696,-0.652,-0.538,-0.783,-1.028,-1.096,-0.296,0.44,0.206
0.411,-1.615,-2.246,-0.631,1.931,-0.491,-1.438,-0.694,-0.649,-0.536,-0.782,-1.027,-1.095,-0.288,0.437,0.208
0.412,-1.616,-2.245,-0.629,1.931,-0.493,-1.438,-0.697,-0.649,-0.536,-0.78,-1.027,-1.094,-0.285,0.439,0.206
0.413,-1.615,-2.248,-0.632,1.931,-0.491,-1.44,-0.696,-0.649,-0.536,-0.776,-1.026,-1.093,-0.289,0.437,0.206
0.414,-1.617,-2.249,-0.633,1.933,-0.491,-1.441,-0.694,-0.648,-0.535,-0.775,-1.026,-1.094,-0.289,0.436,0.204
0.415,-1.617,-2.244,-0.628,1.931,-0.493,-1.437,-0.697,-0.649,-0.533,-0.773,-1.026,-1.094,-0.288,0.436,0.203
0.416,-1.613,-2.244,-0.629,1.929,-0.491,-1.437,-0.698,-0.649,-0.53,-0.771,-1.024,-1.094,-0.287,0.432,0.203
0.417,-1.611,-2.242,-0.631,1.927,-0.489,-1.437,-0.697,-0.648,-0.53,-0.767,-1.023,-1.091,-0.286,0.44,0.203
0.418,-1.607,-2.239,-0.63,1.923,-0.488,-1.435,-0.699,-0.645,-0.527,-0.762,-1.022,-1.088,-0.282,0.444,0.204
0.419,-1.607,-2.24,-0.632,1.923,-0.487,-1.436,-0.698,-0.646,-0.526,-0.759,-1.02,-1.089,-0.282,0.44,0.203
0.42,-1.607,-2.239,-0.631,1.923,-0.487,-1.435,-0.699,-0.644,-0.523,-0.753,-1.018,-1.086,-0.281,0.435,0.201
0.421,-1.603,-2.236,-0.633,1.919,-0.484,-1.435,-0.701,-0.643,-0.521,-0.749,-1.015,-1.084,-0.279,0.435,0.203
0.422,-1.599,-2.234,-0.634,1.917,-0.481,-1.435,-0.7,-0.641,-0.52,-0.747,-1.01,-1.083,-0.277,0.439,0.202
0.423,-1.596,-2.23,-0.633,1.913,-0.481,-1.431,-0.701,-0.641,-0.519,-0.746,-1.01,-1.081,-0.277,0.436,0.2
0.424,-1.595,-2.229,-0.634,1.912,-0.48,-1.431,-0.702,-0.641,-0.518,-0.745,-1.01,-1.081,-0.277,0.432,0.2
0.425,-1.594,-2.227,-0.632,1.911,-0.48,-1.429,-0.704,-0.64,-0.517,-0.744,-1.008,-1.079,-0.274,0.437,0.2
0.426,-1.595,-2.226,-0.631,1.911,-0.481,-1.429,-0.704,-0.642,-0.516,-0.744,-1.009,-1.08,-0.276,0.441,0.199
0.427,-1.595,-2.226,-0.63,1.911,-0.481,-1.428,-0.706,-0.64,-0.515,-0.744,-1.008,-1.081,-0.275,0.437,0.199
0.428,-1.593,-2.225,-0.632,1.909,-0.479,-1.429,-0.708,-0.638,-0.512,-0.743,-1.008,-1.079,-0.273,0.443,0.198
0.429,-1.589,-2.22,-0.631,1.905,-0.478,-1.426,-0.708,-0.637,-0.511,-0.743,-1.006,-1.08,-0.273,0.452,0.198
0.43,-1.585,-2.216,-0.632,1.901,-0.476,-1.424,-0.709,-0.634,-0.511,-0.745,-1.006,-1.078,-0.272,0.453,0.199
0.431,-1.59,-2.219,-0.629,1.905,-0.48,-1.424,-0.71,-0.636,-0.509,-0.746,-1.006,-1.078,-0.274,0.449,0.199
0.432,-1.589,-2.213,-0.624,1.901,-0.482,-1.419,-0.711,-0.636,-0.508,-0.744,-1.006,-1.079,-0.275,0.45,0.198
0.433,-1.582,-2.211,-0.629,1.897,-0.475,-1.421,-0.713,-0.635,-0.507,-0.743,-1.006,-1.077,-0.272,0.452,0.199
0.434,-1.583,-2.212,-0.629,1.897,-0.476,-1.42,-0.712,-0.633,-0.505,-0.739,-1.004,-1.074,-0.268,0.445,0.198
0.435,-1.581,-2.207,-0.625,1.894,-0.478,-1.415,-0.711,-0.629,-0.5,-0.733,-1,-1.071,-0.267,0.45,0.195
0.436,-1.577,-2.203,-0.625,1.89,-0.475,-1.414,-0.709,-0.627,-0.495,-0.729,-0.997,-1.068,-0.266,0.456,0.195
0.437,-1.571,-2.197,-0.626,1.884,-0.472,-1.411,-0.71,-0.626,-0.493,-0.727,-0.995,-1.067,-0.265,0.454,0.195
0.438,-1.57,-2.195,-0.625,1.883,-0.472,-1.409,-0.711,-0.627,-0.491,-0.725,-0.994,-1.067,-0.264,0.455,0.195
0.439,-1.571,-2.195,-0.623,1.883,-0.474,-1.409,-0.711,-0.625,-0.489,-0.721,-0.993,-1.065,-0.264,0.449,0.193
0.44,-1.569,-2.192,-0.624,1.881,-0.472,-1.408,-0.712,-0.624,-0.487,-0.716,-0.99,-1.064,-0.263,0.448,0.193
0.441,-1.565,-2.191,-0.626,1.878,-0.469,-1.409,-0.714,-0.623,-0.486,-0.712,-0.988,-1.062,-0.259,0.449,0.193
0.442,-1.561,-2.189,-0.628,1.875,-0.466,-1.409,-0.716,-0.619,-0.481,-0.707,-0.984,-1.058,-0.257,0.451,0.19
0.443,-1.56,-2.186,-0.626,1.873,-0.466,-1.406,-0.717,-0.617,-0.476,-0.705,-0.983,-1.056,-0.256,0.453,0.189
0.444,-1.555,-2.184,-0.629,1.869,-0.463,-1.407,-0.717,-0.617,-0.477,-0.705,-0.984,-1.056,-0.255,0.45,0.19
0.445,-1.556,-2.185,-0.629,1.871,-0.463,-1.407,-0.718,-0.619,-0.477,-0.704,-0.982,-1.056,-0.255,0.447,0.193
0.446,-1.557,-2.184,-0.627,1.871,-0.465,-1.406,-0.719,-0.616,-0.473,-0.701,-0.977,-1.054,-0.253,0.451,0.192
0.447,-1.558,-2.184,-0.627,1.871,-0.465,-1.405,-0.72,-0.612,-0.469,-0.699,-0.975,-1.052,-0.251,0.458,0.191
0.448,-1.562,-2.187,-0.625,1.874,-0.468,-1.406,-0.721,-0.613,-0.468,-0.698,-0.974,-1.051,-0.25,0.459,0.19
0.449,-1.56,-2.185,-0.625,1.873,-0.467,-1.405,-0.721,-0.612,-0.467,-0.698,-0.975,-1.05,-0.248,0.457,0.19
0.45,-1.558,-2.184,-0.626,1.871,-0.465,-1.405,-0.725,-0.611,-0.464,-0.698,-0.976,-1.048,-0.246,0.453,0.19
0.451,-1.556,-2.182,-0.625,1.869,-0.465,-1.404,-0.726,-0.61,-0.46,-0.696,-0.974,-1.048,-0.245,0.457,0.189
0.452,-1.554,-2.182,-0.627,1.869,-0.463,-1.405,-0.724,-0.608,-0.458,-0.691,-0.97,-1.047,-0.244,0.456,0.187
0.453,-1.557,-2.186,-0.628,1.871,-0.464,-1.407,-0.725,-0.605,-0.454,-0.685,-0.965,-1.042,-0.241,0.457,0.186
0.454,-1.56,-2.186,-0.626,1.873,-0.467,-1.406,-0.725,-0.604,-0.45,-0.682,-0.964,-1.042,-0.239,0.465,0.186
0.455,-1.558,-2.183,-0.625,1.871,-0.466,-1.405,-0.726,-0.602,-0.449,-0.679,-0.964,-1.042,-0.239,0.464,0.184
0.456,-1.552,-2.178,-0.626,1.865,-0.463,-1.402,-0.73,-0.6,-0.446,-0.675,-0.964,-1.04,-0.236,0.467,0.184
0.457,-1.55,-2.178,-0.627,1.864,-0.461,-1.403,-0.73,-0.598,-0.443,-0.672,-0.963,-1.038,-0.234,0.464,0.183
0.458,-1.548,-2.175,-0.626,1.862,-0.461,-1.401,-0.732,-0.596,-0.44,-0.668,-0.962,-1.038,-0.233,0.466,0.182
0.459,-1.547,-2.174,-0.626,1.86,-0.46,-1.4,-0.734,-0.593,-0.436,-0.662,-0.961,-1.036,-0.23,0.473,0.182
0.46,-1.548,-2.174,-0.626,1.861,-0.46,-1.4,-0.734,-0.591,-0.434,-0.656,-0.959,-1.035,-0.227,0.468,0.181
0.461,-1.547,-2.172,-0.625,1.859,-0.461,-1.399,-0.736,-0.592,-0.433,-0.652,-0.96,-1.036,-0.226,0.464,0.179
0.462,-1.545,-2.17,-0.625,1.857,-0.46,-1.397,-0.738,-0.589,-0.428,-0.649,-0.955,-1.031,-0.222,0.463,0.179
0.463,-1.54,-2.163,-0.624,1.851,-0.458,-1.393,-0.74,-0.586,-0.422,-0.645,-0.95,-1.029,-0.219,0.469,0.177
0.464,-1.533,-2.159,-0.626,1.846,-0.453,-1.393,-0.74,-0.585,-0.421,-0.646,-0.95,-1.03,-0.217,0.477,0.178
0.465,-1.529,-2.156,-0.627,1.843,-0.451,-1.391,-0.742,-0.58,-0.416,-0.644,-0.947,-1.026,-0.214,0.479,0.177
0.466,-1.53,-2.155,-0.625,1.843,-0.452,-1.39,-0.742,-0.578,-0.41,-0.639,-0.943,-1.024,-0.212,0.479,0.176
0.467,-1.529,-2.154,-0.625,1.841,-0.452,-1.389,-0.743,-0.575,-0.406,-0.638,-0.941,-1.02,-0.209,0.483,0.177
0.468,-1.524,-2.148,-0.625,1.837,-0.45,-1.387,-0.745,-0.573,-0.403,-0.636,-0.938,-1.018,-0.206,0.481,0.176
0.469,-1.522,-2.146,-0.624,1.833,-0.449,-1.385,-0.748,-0.572,-0.398,-0.633,-0.936,-1.016,-0.204,0.48,0.175
0.47,-1.518,-2.14,-0.622,1.829,-0.448,-1.381,-0.75,-0.567,-0.394,-0.632,-0.933,-1.014,-0.201,0.486,0.175
0.471,-1.516,-2.135,-0.62,1.825,-0.448,-1.377,-0.752,-0.565,-0.392,-0.629,-0.931,-1.014,-0.198,0.493,0.174
0.472,-1.514,-2.132,-0.618,1.823,-0.447,-1.375,-0.752,-0.56,-0.386,-0.624,-0.928,-1.01,-0.196,0.495,0.172
0.473,-1.514,-2.132,-0.619,1.823,-0.447,-1.375,-0.752,-0.555,-0.382,-0.616,-0.925,-1.006,-0.193,0.492,0.17
0.474,-1.514,-2.131,-0.617,1.823,-0.449,-1.374,-0.754,-0.553,-0.378,-0.611,-0.922,-1.003,-0.192,0.49,0.17
0.475,-1.508,-2.128,-0.62,1.819,-0.444,-1.374,-0.756,-0.551,-0.372,-0.605,-0.918,-1,-0.189,0.491,0.171
0.476,-1.504,-2.128,-0.624,1.817,-0.44,-1.376,-0.757,-0.547,-0.367,-0.599,-0.916,-0.997,-0.184,0.491,0.169
0.477,-1.507,-2.127,-0.62,1.817,-0.444,-1.373,-0.759,-0.545,-0.363,-0.593,-0.912,-0.996,-0.184,0.491,0.166
0.478,-1.5,-2.12,-0.62,1.81,-0.44,-1.37,-0.762,-0.541,-0.358,-0.586,-0.908,-0.992,-0.179,0.5,0.165
0.479,-1.495,-2.116,-0.621,1.806,-0.436,-1.369,-0.762,-0.538,-0.353,-0.58,-0.905,-0.988,-0.176,0.5,0.164
0.48,-1.491,-2.111,-0.621,1.801,-0.434,-1.366,-0.763,-0.533,-0.348,-0.572,-0.9,-0.984,-0.173,0.496,0.161
0.481,-1.484,-2.106,-0.622,1.795,-0.43,-1.364,-0.767,-0.527,-0.341,-0.561,-0.895,-0.979,-0.168,0.504,0.16
0.482,-1.482,-2.104,-0.623,1.792,-0.429,-1.363,-0.767,-0.524,-0.337,-0.557,-0.892,-0.979,-0.166,0.508,0.159
0.483,-1.476,-2.101,-0.625,1.788,-0.425,-1.363,-0.769,-0.521,-0.331,-0.552,-0.888,-0.974,-0.161,0.505,0.159
0.484,-1.469,-2.095,-0.625,1.782,-0.421,-1.36,-0.771,-0.516,-0.325,-0.546,-0.883,-0.968,-0.157,0.508,0.157
0.485,-1.464,-2.09,-0.625,1.777,-0.419,-1.357,-0.775,-0.512,-0.32,-0.543,-0.879,-0.966,-0.153,0.516,0.155
0.486,-1.462,-2.087,-0.625,1.774,-0.417,-1.357,-0.778,-0.508,-0.314,-0.536,-0.875,-0.963,-0.15,0.526,0.155
0.487,-1.46,-2.084,-0.625,1.772,-0.417,-1.354,-0.781,-0.504,-0.308,-0.53,-0.87,-0.958,-0.146,0.527,0.151
0.488,-1.458,-2.083,-0.624,1.77,-0.416,-1.353,-0.783,-0.502,-0.302,-0.527,-0.866,-0.955,-0.143,0.524,0.147
0.489,-1.455,-2.079,-0.624,1.767,-0.415,-1.351,-0.786,-0.498,-0.297,-0.523,-0.862,-0.953,-0.141,0.525,0.148
0.49,-1.454,-2.075,-0.622,1.764,-0.415,-1.349,-0.788,-0.493,-0.292,-0.519,-0.859,-0.95,-0.139,0.526,0.148
0.491,-1.448,-2.072,-0.624,1.76,-0.412,-1.347,-0.79,-0.488,-0.284,-0.512,-0.853,-0.945,-0.135,0.528,0.144
0.492,-1.44,-2.067,-0.625,1.754,-0.407,-1.346,-0.791,-0.481,-0.278,-0.503,-0.848,-0.94,-0.129,0.53,0.142
0.493,-1.44,-2.063,-0.624,1.751,-0.408,-1.343,-0.792,-0.477,-0.273,-0.497,-0.845,-0.936,-0.126,0.534,0.142
0.494,-1.438,-2.062,-0.624,1.75,-0.407,-1.343,-0.797,-0.473,-0.267,-0.49,-0.839,-0.933,-0.121,0.538,0.14
0.495,-1.435,-2.057,-0.622,1.746,-0.407,-1.339,-0.8,-0.468,-0.261,-0.483,-0.834,-0.929,-0.117,0.538,0.138
0.496,-1.431,-2.054,-0.623,1.742,-0.404,-1.338,-0.806,-0.465,-0.255,-0.476,-0.829,-0.926,-0.112,0.536,0.137
0.497,-1.427,-2.052,-0.625,1.74,-0.402,-1.339,-0.809,-0.46,-0.249,-0.469,-0.824,-0.921,-0.106,0.536,0.135
0.498,-1.419,-2.045,-0.626,1.732,-0.397,-1.335,-0.812,-0.454,-0.24,-0.457,-0.818,-0.916,-0.102,0.543,0.132
0.499,-1.417,-2.044,-0.626,1.73,-0.396,-1.335,-0.814,-0.448,-0.234,-0.448,-0.811,-0.913,-0.099,0.544,0.13
0.5,-1.419,-2.045,-0.625,1.732,-0.397,-1.335,-0.813,-0.444,-0.231,-0.44,-0.808,-0.91,-0.097,0.538,0.128
0.501,-1.414,-2.039,-0.626,1.726,-0.394,-1.333,-0.819,-0.44,-0.223,-0.43,-0.804,-0.905,-0.089,0.54,0.124
0.502,-1.413,-2.035,-0.623,1.724,-0.395,-1.329,-0.822,-0.434,-0.216,-0.421,-0.798,-0.901,-0.085,0.545,0.121
0.503,-1.407,-2.03,-0.625,1.718,-0.391,-1.327,-0.824,-0.431,-0.21,-0.414,-0.794,-0.897,-0.081,0.551,0.119
0.504,-1.403,-2.028,-0.625,1.716,-0.389,-1.327,-0.827,-0.425,-0.202,-0.409,-0.789,-0.893,-0.076,0.552,0.117
0.505,-1.397,-2.022,-0.625,1.71,-0.386,-1.324,-0.83,-0.419,-0.196,-0.403,-0.784,-0.888,-0.072,0.553,0.114
0.506,-1.391,-2.017,-0.625,1.704,-0.383,-1.321,-0.835,-0.414,-0.19,-0.396,-0.779,-0.885,-0.067,0.56,0.114
0.507,-1.393,-2.015,-0.622,1.704,-0.386,-1.319,-0.837,-0.41,-0.184,-0.39,-0.775,-0.882,-0.063,0.563,0.112
0.508,-1.391,-2.012,-0.621,1.702,-0.385,-1.317,-0.839,-0.407,-0.178,-0.386,-0.771,-0.879,-0.059,0.565,0.11
0.509,-1.387,-2.006,-0.619,1.696,-0.385,-1.312,-0.844,-0.402,-0.173,-0.381,-0.767,-0.875,-0.055,0.571,0.108
0.51,-1.385,-2.002,-0.618,1.694,-0.384,-1.31,-0.848,-0.399,-0.167,-0.377,-0.764,-0.873,-0.053,0.578,0.106
0.511,-1.379,-1.998,-0.618,1.688,-0.381,-1.308,-0.848,-0.394,-0.16,-0.369,-0.759,-0.867,-0.048,0.579,0.105
0.512,-1.372,-1.992,-0.62,1.681,-0.376,-1.306,-0.852,-0.387,-0.152,-0.36,-0.752,-0.863,-0.043,0.579,0.103
0.513,-1.369,-1.988,-0.619,1.679,-0.376,-1.304,-0.854,-0.383,-0.148,-0.354,-0.748,-0.86,-0.038,0.584,0.102
0.514,-1.367,-1.984,-0.617,1.676,-0.376,-1.3,-0.857,-0.381,-0.145,-0.347,-0.744,-0.857,-0.035,0.588,0.099
0.515,-1.365,-1.981,-0.617,1.673,-0.374,-1.299,-0.86,-0.376,-0.139,-0.341,-0.738,-0.852,-0.029,0.589,0.097
0.516,-1.359,-1.976,-0.618,1.667,-0.37,-1.297,-0.862,-0.37,-0.133,-0.334,-0.733,-0.848,-0.024,0.59,0.095
0.517,-1.353,-1.972,-0.619,1.663,-0.367,-1.295,-0.863,-0.366,-0.126,-0.326,-0.728,-0.845,-0.021,0.591,0.093
0.518,-1.349,-1.97,-0.62,1.659,-0.365,-1.294,-0.864,-0.362,-0.119,-0.317,-0.722,-0.838,-0.018,0.59,0.09
0.519,-1.347,-1.966,-0.62,1.657,-0.363,-1.293,-0.868,-0.359,-0.115,-0.308,-0.717,-0.834,-0.013,0.593,0.087
0.52,-1.347,-1.964,-0.617,1.656,-0.365,-1.29,-0.872,-0.358,-0.112,-0.302,-0.715,-0.834,-0.009,0.593,0.086
0.521,-1.345,-1.962,-0.618,1.653,-0.364,-1.29,-0.874,-0.355,-0.107,-0.295,-0.71,-0.831,-0.006,0.591,0.083
0.522,-1.345,-1.962,-0.617,1.653,-0.364,-1.29,-0.875,-0.352,-0.102,-0.292,-0.707,-0.827,-0.004,0.593,0.082
0.523,-1.343,-1.958,-0.614,1.651,-0.365,-1.286,-0.877,-0.35,-0.098,-0.289,-0.704,-0.824,0,0.598,0.081
0.524,-1.337,-1.948,-0.612,1.643,-0.362,-1.28,-0.881,-0.346,-0.092,-0.284,-0.698,-0.819,0.006,0.604,0.08
0.525,-1.333,-1.944,-0.611,1.639,-0.361,-1.277,-0.883,-0.344,-0.088,-0.28,-0.695,-0.817,0.006,0.605,0.077
0.526,-1.335,-1.943,-0.608,1.639,-0.363,-1.276,-0.884,-0.342,-0.085,-0.276,-0.691,-0.814,0.009,0.607,0.075
0.527,-1.333,-1.94,-0.608,1.637,-0.362,-1.274,-0.886,-0.341,-0.081,-0.273,-0.688,-0.811,0.012,0.611,0.075
0.528,-1.331,-1.94,-0.609,1.636,-0.361,-1.274,-0.886,-0.34,-0.078,-0.272,-0.685,-0.809,0.013,0.611,0.074
0.529,-1.334,-1.946,-0.612,1.64,-0.361,-1.279,-0.887,-0.335,-0.074,-0.269,-0.681,-0.806,0.015,0.608,0.074
0.53,-1.33,-1.944,-0.614,1.637,-0.358,-1.279,-0.888,-0.332,-0.07,-0.266,-0.677,-0.803,0.018,0.612,0.073
0.531,-1.325,-1.935,-0.61,1.63,-0.357,-1.272,-0.888,-0.33,-0.068,-0.264,-0.673,-0.799,0.021,0.617,0.071
0.532,-1.321,-1.931,-0.61,1.627,-0.355,-1.271,-0.889,-0.327,-0.064,-0.259,-0.668,-0.796,0.025,0.623,0.07
0.533,-1.321,-1.928,-0.606,1.625,-0.358,-1.267,-0.89,-0.326,-0.06,-0.254,-0.666,-0.794,0.026,0.623,0.07
0.534,-1.322,-1.925,-0.603,1.623,-0.359,-1.264,-0.891,-0.324,-0.058,-0.248,-0.665,-0.792,0.029,0.618,0.068
0.535,-1.319,-1.926,-0.607,1.623,-0.355,-1.266,-0.891,-0.321,-0.054,-0.244,-0.66,-0.789,0.03,0.623,0.066
0.536,-1.319,-1.923,-0.606,1.621,-0.356,-1.264,-0.893,-0.321,-0.053,-0.242,-0.66,-0.787,0.032,0.626,0.066
0.537,-1.315,-1.92,-0.605,1.617,-0.355,-1.262,-0.895,-0.319,-0.053,-0.238,-0.658,-0.786,0.035,0.626,0.065
0.538,-1.314,-1.919,-0.605,1.616,-0.354,-1.262,-0.895,-0.316,-0.05,-0.234,-0.657,-0.785,0.035,0.629,0.061
0.539,-1.312,-1.917,-0.606,1.614,-0.353,-1.261,-0.897,-0.316,-0.048,-0.23,-0.656,-0.784,0.035,0.633,0.059
0.54,-1.312,-1.919,-0.607,1.615,-0.353,-1.262,-0.896,-0.318,-0.051,-0.226,-0.654,-0.783,0.035,0.634,0.058
0.541,-1.315,-1.918,-0.604,1.616,-0.355,-1.261,-0.898,-0.318,-0.051,-0.221,-0.652,-0.78,0.035,0.633,0.057
0.542,-1.311,-1.914,-0.604,1.613,-0.354,-1.259,-0.899,-0.316,-0.049,-0.217,-0.649,-0.777,0.038,0.637,0.054
0.543,-1.312,-1.913,-0.602,1.613,-0.355,-1.258,-0.897,-0.318,-0.051,-0.222,-0.649,-0.778,0.037,0.639,0.053
0.544,-1.313,-1.914,-0.601,1.614,-0.356,-1.258,-0.897,-0.32,-0.052,-0.224,-0.649,-0.779,0.037,0.639,0.053
0.545,-1.315,-1.913,-0.6,1.614,-0.358,-1.256,-0.896,-0.323,-0.054,-0.227,-0.649,-0.779,0.035,0.643,0.052
0.546,-1.315,-1.911,-0.597,1.613,-0.358,-1.254,-0.895,-0.323,-0.056,-0.23,-0.649,-0.778,0.033,0.64,0.053
0.547,-1.313,-1.909,-0.595,1.611,-0.359,-1.252,-0.896,-0.326,-0.058,-0.233,-0.65,-0.78,0.033,0.642,0.052
0.548,-1.315,-1.907,-0.592,1.611,-0.361,-1.25,-0.896,-0.332,-0.062,-0.238,-0.653,-0.781,0.03,0.646,0.052
0.549,-1.317,-1.909,-0.592,1.613,-0.363,-1.25,-0.894,-0.334,-0.065,-0.245,-0.655,-0.784,0.028,0.643,0.051
0.55,-1.32,-1.917,-0.597,1.619,-0.362,-1.256,-0.89,-0.335,-0.069,-0.249,-0.655,-0.784,0.024,0.635,0.052
0.551,-1.323,-1.919,-0.596,1.621,-0.363,-1.258,-0.885,-0.337,-0.073,-0.254,-0.658,-0.785,0.021,0.637,0.053
0.552,-1.325,-1.919,-0.594,1.621,-0.365,-1.256,-0.885,-0.343,-0.081,-0.262,-0.663,-0.788,0.016,0.635,0.054
0.553,-1.325,-1.917,-0.591,1.621,-0.367,-1.254,-0.885,-0.347,-0.089,-0.268,-0.666,-0.792,0.013,0.629,0.055
0.554,-1.331,-1.915,-0.585,1.623,-0.372,-1.25,-0.884,-0.351,-0.095,-0.273,-0.671,-0.797,0.01,0.632,0.056
0.555,-1.333,-1.92,-0.588,1.626,-0.372,-1.254,-0.879,-0.355,-0.1,-0.278,-0.677,-0.799,0.004,0.629,0.058
0.556,-1.337,-1.925,-0.588,1.631,-0.375,-1.256,-0.876,-0.358,-0.106,-0.284,-0.683,-0.802,0.001,0.627,0.059
0.557,-1.345,-1.929,-0.585,1.637,-0.38,-1.257,-0.875,-0.363,-0.115,-0.293,-0.688,-0.81,-0.005,0.629,0.059
0.558,-1.347,-1.933,-0.586,1.639,-0.381,-1.26,-0.872,-0.367,-0.122,-0.3,-0.692,-0.814,-0.01,0.628,0.06
0.559,-1.355,-1.938,-0.584,1.647,-0.386,-1.261,-0.87,-0.374,-0.133,-0.309,-0.699,-0.818,-0.014,0.617,0.062
0.56,-1.361,-1.946,-0.584,1.653,-0.389,-1.265,-0.867,-0.379,-0.14,-0.316,-0.703,-0.825,-0.019,0.611,0.063
0.561,-1.364,-1.95,-0.586,1.657,-0.39,-1.268,-0.866,-0.387,-0.148,-0.324,-0.71,-0.831,-0.025,0.615,0.065
0.562,-1.369,-1.95,-0.582,1.659,-0.393,-1.266,-0.863,-0.392,-0.157,-0.334,-0.718,-0.838,-0.032,0.621,0.066
0.563,-1.372,-1.953,-0.581,1.663,-0.396,-1.267,-0.861,-0.395,-0.166,-0.344,-0.725,-0.843,-0.035,0.618,0.07
0.564,-1.377,-1.959,-0.582,1.668,-0.398,-1.27,-0.858,-0.405,-0.179,-0.357,-0.735,-0.851,-0.042,0.613,0.072
0.565,-1.387,-1.969,-0.582,1.678,-0.403,-1.276,-0.852,-0.409,-0.186,-0.366,-0.741,-0.855,-0.049,0.61,0.074
0.566,-1.393,-1.976,-0.582,1.685,-0.406,-1.278,-0.851,-0.415,-0.195,-0.377,-0.75,-0.863,-0.056,0.602,0.079
0.567,-1.397,-1.982,-0.586,1.69,-0.406,-1.284,-0.847,-0.422,-0.204,-0.39,-0.757,-0.87,-0.062,0.593,0.083
0.568,-1.405,-1.987,-0.583,1.696,-0.41,-1.284,-0.843,-0.429,-0.213,-0.402,-0.764,-0.875,-0.068,0.594,0.085
0.569,-1.407,-1.99,-0.583,1.698,-0.412,-1.286,-0.84,-0.436,-0.225,-0.416,-0.773,-0.883,-0.075,0.595,0.088
0.57,-1.411,-1.996,-0.586,1.704,-0.412,-1.29,-0.834,-0.443,-0.235,-0.429,-0.778,-0.887,-0.082,0.589,0.091
0.571,-1.416,-2.001,-0.585,1.708,-0.415,-1.292,-0.828,-0.447,-0.242,-0.44,-0.783,-0.892,-0.088,0.585,0.095
0.572,-1.417,-2.006,-0.589,1.712,-0.413,-1.298,-0.825,-0.451,-0.252,-0.451,-0.792,-0.9,-0.095,0.583,0.097
0.573,-1.419,-2.003,-0.583,1.711,-0.417,-1.293,-0.821,-0.457,-0.26,-0.459,-0.798,-0.904,-0.1,0.586,0.099
0.574,-1.424,-2.006,-0.582,1.716,-0.42,-1.294,-0.817,-0.461,-0.268,-0.468,-0.806,-0.908,-0.107,0.579,0.103
0.575,-1.433,-2.016,-0.583,1.725,-0.425,-1.3,-0.814,-0.469,-0.28,-0.48,-0.816,-0.918,-0.117,0.563,0.106
0.576,-1.438,-2.019,-0.581,1.728,-0.428,-1.3,-0.808,-0.474,-0.288,-0.487,-0.822,-0.923,-0.122,0.564,0.108
0.577,-1.443,-2.024,-0.581,1.734,-0.43,-1.302,-0.804,-0.478,-0.294,-0.493,-0.828,-0.928,-0.128,0.568,0.111
0.578,-1.45,-2.031,-0.581,1.74,-0.434,-1.306,-0.798,-0.483,-0.301,-0.5,-0.833,-0.934,-0.135,0.561,0.113
0.579,-1.452,-2.035,-0.584,1.744,-0.434,-1.31,-0.794,-0.488,-0.308,-0.506,-0.841,-0.939,-0.139,0.558,0.115
0.58,-1.453,-2.04,-0.587,1.746,-0.432,-1.313,-0.791,-0.494,-0.321,-0.515,-0.851,-0.946,-0.146,0.552,0.117
0.581,-1.458,-2.049,-0.591,1.754,-0.433,-1.32,-0.786,-0.505,-0.335,-0.527,-0.861,-0.956,-0.155,0.538,0.119
0.582,-1.463,-2.052,-0.589,1.758,-0.436,-1.321,-0.783,-0.509,-0.342,-0.534,-0.867,-0.961,-0.162,0.531,0.122
0.583,-1.466,-2.055,-0.59,1.761,-0.438,-1.323,-0.776,-0.51,-0.347,-0.544,-0.871,-0.964,-0.167,0.529,0.126
0.584,-1.47,-2.062,-0.592,1.766,-0.439,-1.327,-0.771,-0.519,-0.358,-0.556,-0.88,-0.972,-0.173,0.529,0.129
0.585,-1.472,-2.067,-0.595,1.77,-0.438,-1.331,-0.77,-0.523,-0.364,-0.565,-0.887,-0.977,-0.177,0.526,0.133
0.586,-1.476,-2.075,-0.599,1.776,-0.438,-1.337,-0.766,-0.528,-0.372,-0.576,-0.893,-0.982,-0.183,0.516,0.137
0.587,-1.476,-2.076,-0.601,1.776,-0.438,-1.339,-0.763,-0.533,-0.38,-0.585,-0.9,-0.988,-0.189,0.518,0.14
0.588,-1.482,-2.081,-0.6,1.782,-0.441,-1.341,-0.758,-0.538,-0.388,-0.594,-0.907,-0.992,-0.194,0.515,0.143
0.589,-1.489,-2.087,-0.598,1.788,-0.445,-1.343,-0.755,-0.545,-0.398,-0.606,-0.915,-0.998,-0.201,0.509,0.146
0.59,-1.49,-2.088,-0.598,1.789,-0.446,-1.343,-0.751,-0.546,-0.403,-0.616,-0.922,-1.004,-0.205,0.516,0.149
0.591,-1.494,-2.092,-0.598,1.793,-0.448,-1.345,-0.746,-0.551,-0.409,-0.625,-0.927,-1.008,-0.212,0.509,0.153
0.592,-1.493,-2.095,-0.603,1.794,-0.445,-1.349,-0.742,-0.554,-0.414,-0.63,-0.93,-1.01,-0.215,0.5,0.155
0.593,-1.493,-2.1,-0.607,1.796,-0.443,-1.353,-0.738,-0.558,-0.421,-0.637,-0.938,-1.016,-0.221,0.5,0.157
0.594,-1.495,-2.103,-0.609,1.799,-0.443,-1.356,-0.734,-0.564,-0.428,-0.645,-0.944,-1.02,-0.228,0.487,0.16
0.595,-1.5,-2.108,-0.608,1.804,-0.446,-1.358,-0.729,-0.567,-0.432,-0.651,-0.949,-1.024,-0.232,0.481,0.162
0.596,-1.507,-2.114,-0.607,1.81,-0.45,-1.361,-0.724,-0.572,-0.44,-0.657,-0.953,-1.028,-0.237,0.485,0.164
0.597,-1.514,-2.119,-0.605,1.816,-0.454,-1.361,-0.72,-0.577,-0.447,-0.663,-0.959,-1.034,-0.245,0.484,0.166
0.598,-1.518,-2.123,-0.605,1.821,-0.456,-1.365,-0.718,-0.583,-0.456,-0.67,-0.966,-1.04,-0.25,0.485,0.168
0.599,-1.516,-2.126,-0.609,1.821,-0.454,-1.367,-0.716,-0.588,-0.463,-0.675,-0.969,-1.042,-0.252,0.483,0.17
0.6,-1.516,-2.131,-0.615,1.823,-0.45,-1.373,-0.712,-0.589,-0.469,-0.676,-0.973,-1.046,-0.256,0.477,0.172
0.601,-1.519,-2.139,-0.621,1.829,-0.449,-1.381,-0.71,-0.592,-0.474,-0.68,-0.977,-1.05,-0.26,0.471,0.173
0.602,-1.526,-2.143,-0.618,1.835,-0.454,-1.38,-0.711,-0.599,-0.483,-0.688,-0.983,-1.054,-0.264,0.467,0.175
0.603,-1.532,-2.149,-0.617,1.841,-0.457,-1.383,-0.708,-0.603,-0.49,-0.696,-0.988,-1.059,-0.269,0.463,0.177
0.604,-1.538,-2.153,-0.616,1.845,-0.461,-1.385,-0.705,-0.608,-0.495,-0.702,-0.992,-1.063,-0.272,0.461,0.18
0.605,-1.54,-2.155,-0.615,1.847,-0.463,-1.385,-0.702,-0.608,-0.499,-0.707,-0.995,-1.065,-0.275,0.457,0.183
0.606,-1.542,-2.158,-0.616,1.851,-0.463,-1.387,-0.699,-0.611,-0.502,-0.712,-0.998,-1.067,-0.278,0.455,0.186
0.607,-1.542,-2.161,-0.619,1.851,-0.461,-1.39,-0.696,-0.615,-0.506,-0.718,-1,-1.069,-0.28,0.455,0.189
0.608,-1.541,-2.164,-0.624,1.853,-0.459,-1.394,-0.694,-0.616,-0.509,-0.722,-1.002,-1.071,-0.281,0.454,0.191
0.609,-1.545,-2.167,-0.622,1.856,-0.461,-1.395,-0.695,-0.621,-0.514,-0.732,-1.006,-1.075,-0.285,0.451,0.195
0.61,-1.549,-2.169,-0.62,1.859,-0.464,-1.395,-0.693,-0.622,-0.517,-0.737,-1.01,-1.077,-0.289,0.45,0.195
0.611,-1.55,-2.172,-0.622,1.861,-0.464,-1.397,-0.691,-0.625,-0.521,-0.741,-1.013,-1.08,-0.291,0.45,0.196
0.612,-1.552,-2.179,-0.627,1.865,-0.462,-1.403,-0.688,-0.625,-0.525,-0.746,-1.015,-1.081,-0.293,0.443,0.199
0.613,-1.552,-2.179,-0.627,1.865,-0.462,-1.403,-0.686,-0.626,-0.528,-0.745,-1.016,-1.083,-0.294,0.438,0.201
0.614,-1.55,-2.178,-0.627,1.864,-0.462,-1.402,-0.688,-0.63,-0.534,-0.748,-1.02,-1.087,-0.296,0.436,0.203
0.615,-1.552,-2.179,-0.627,1.866,-0.462,-1.403,-0.688,-0.63,-0.537,-0.751,-1.021,-1.087,-0.298,0.433,0.203
0.616,-1.556,-2.183,-0.627,1.869,-0.464,-1.405,-0.685,-0.632,-0.538,-0.754,-1.024,-1.089,-0.3,0.432,0.204
0.617,-1.559,-2.188,-0.629,1.873,-0.465,-1.409,-0.682,-0.633,-0.543,-0.757,-1.025,-1.09,-0.302,0.43,0.206
0.618,-1.555,-2.189,-0.633,1.872,-0.46,-1.411,-0.681,-0.636,-0.544,-0.758,-1.028,-1.091,-0.302,0.427,0.206
0.619,-1.558,-2.19,-0.633,1.873,-0.462,-1.411,-0.682,-0.638,-0.544,-0.758,-1.029,-1.091,-0.303,0.428,0.209
0.62,-1.558,-2.192,-0.632,1.875,-0.463,-1.412,-0.681,-0.64,-0.548,-0.76,-1.03,-1.093,-0.303,0.426,0.21
0.621,-1.558,-2.191,-0.633,1.875,-0.462,-1.413,-0.681,-0.644,-0.55,-0.762,-1.033,-1.096,-0.303,0.424,0.212
0.622,-1.56,-2.191,-0.631,1.875,-0.464,-1.411,-0.683,-0.646,-0.552,-0.766,-1.034,-1.098,-0.304,0.422,0.213
0.623,-1.558,-2.192,-0.634,1.875,-0.462,-1.413,-0.684,-0.648,-0.555,-0.769,-1.036,-1.098,-0.304,0.422,0.216
0.624,-1.562,-2.194,-0.632,1.878,-0.465,-1.413,-0.681,-0.648,-0.554,-0.769,-1.036,-1.097,-0.304,0.424,0.219
0.625,-1.565,-2.198,-0.632,1.881,-0.466,-1.415,-0.681,-0.651,-0.557,-0.773,-1.038,-1.097,-0.306,0.422,0.218
0.626,-1.568,-2.201,-0.633,1.885,-0.467,-1.417,-0.681,-0.653,-0.56,-0.776,-1.041,-1.099,-0.308,0.42,0.22
0.627,-1.568,-2.2,-0.632,1.884,-0.468,-1.417,-0.678,-0.653,-0.56,-0.776,-1.04,-1.099,-0.308,0.422,0.22
0.628,-1.569,-2.204,-0.634,1.887,-0.467,-1.419,-0.679,-0.654,-0.561,-0.782,-1.042,-1.101,-0.309,0.421,0.222
0.629,-1.572,-2.205,-0.633,1.889,-0.469,-1.419,-0.679,-0.658,-0.565,-0.788,-1.044,-1.103,-0.31,0.419,0.225
0.63,-1.571,-2.204,-0.633,1.887,-0.468,-1.419,-0.676,-0.657,-0.567,-0.792,-1.042,-1.102,-0.311,0.423,0.224
0.631,-1.573,-2.208,-0.635,1.891,-0.469,-1.422,-0.676,-0.658,-0.567,-0.794,-1.044,-1.103,-0.314,0.419,0.225
0.632,-1.575,-2.21,-0.635,1.892,-0.469,-1.423,-0.677,-0.662,-0.571,-0.796,-1.047,-1.105,-0.317,0.413,0.227
0.633,-1.575,-2.209,-0.634,1.893,-0.47,-1.422,-0.677,-0.664,-0.573,-0.798,-1.048,-1.106,-0.317,0.417,0.227
0.634,-1.579,-2.212,-0.634,1.895,-0.471,-1.423,-0.678,-0.666,-0.574,-0.798,-1.05,-1.107,-0.316,0.413,0.228
0.635,-1.579,-2.215,-0.636,1.897,-0.47,-1.425,-0.678,-0.667,-0.576,-0.799,-1.051,-1.107,-0.318,0.416,0.228
0.636,-1.583,-2.217,-0.634,1.9,-0.474,-1.425,-0.678,-0.668,-0.578,-0.798,-1.053,-1.109,-0.318,0.423,0.228
0.637,-1.585,-2.219,-0.633,1.902,-0.475,-1.427,-0.678,-0.67,-0.582,-0.799,-1.053,-1.111,-0.319,0.42,0.229
0.638,-1.585,-2.22,-0.635,1.903,-0.474,-1.428,-0.681,-0.673,-0.588,-0.801,-1.056,-1.113,-0.318,0.416,0.23
0.639,-1.591,-2.224,-0.633,1.908,-0.478,-1.429,-0.682,-0.675,-0.59,-0.8,-1.057,-1.115,-0.318,0.41,0.23
0.64,-1.597,-2.23,-0.632,1.913,-0.482,-1.431,-0.682,-0.677,-0.591,-0.799,-1.058,-1.117,-0.322,0.408,0.23
0.641,-1.599,-2.232,-0.632,1.915,-0.483,-1.432,-0.682,-0.679,-0.593,-0.799,-1.06,-1.117,-0.323,0.407,0.231
0.642,-1.6,-2.232,-0.632,1.916,-0.483,-1.433,-0.681,-0.679,-0.592,-0.799,-1.057,-1.115,-0.322,0.406,0.23
0.643,-1.601,-2.231,-0.63,1.916,-0.485,-1.431,-0.681,-0.679,-0.594,-0.8,-1.059,-1.117,-0.322,0.408,0.231
0.644,-1.602,-2.23,-0.628,1.915,-0.486,-1.429,-0.679,-0.681,-0.596,-0.804,-1.059,-1.119,-0.323,0.407,0.23
0.645,-1.603,-2.233,-0.629,1.918,-0.486,-1.431,-0.678,-0.684,-0.599,-0.807,-1.06,-1.12,-0.326,0.41,0.232
0.646,-1.606,-2.233,-0.627,1.919,-0.489,-1.43,-0.679,-0.684,-0.6,-0.811,-1.062,-1.121,-0.327,0.416,0.234
0.647,-1.605,-2.232,-0.627,1.919,-0.488,-1.43,-0.681,-0.683,-0.6,-0.811,-1.061,-1.121,-0.327,0.418,0.233
0.648,-1.607,-2.232,-0.625,1.92,-0.49,-1.429,-0.683,-0.688,-0.604,-0.816,-1.062,-1.121,-0.328,0.419,0.235
0.649,-1.609,-2.232,-0.623,1.92,-0.492,-1.427,-0.682,-0.69,-0.605,-0.82,-1.061,-1.121,-0.328,0.42,0.235
0.65,-1.605,-2.23,-0.625,1.917,-0.49,-1.427,-0.681,-0.688,-0.606,-0.823,-1.061,-1.121,-0.329,0.42,0.236
0.651,-1.604,-2.229,-0.625,1.917,-0.489,-1.427,-0.681,-0.689,-0.606,-0.828,-1.062,-1.121,-0.329,0.419,0.238
0.652,-1.603,-2.229,-0.626,1.916,-0.488,-1.427,-0.679,-0.688,-0.605,-0.827,-1.062,-1.119,-0.33,0.418,0.239
0.653,-1.603,-2.227,-0.625,1.915,-0.488,-1.425,-0.68,-0.689,-0.607,-0.826,-1.06,-1.118,-0.329,0.418,0.241
0.654,-1.599,-2.223,-0.624,1.911,-0.487,-1.423,-0.682,-0.69,-0.607,-0.827,-1.06,-1.118,-0.327,0.416,0.242
0.655,-1.599,-2.222,-0.623,1.911,-0.487,-1.423,-0.682,-0.69,-0.608,-0.824,-1.058,-1.116,-0.326,0.418,0.241
0.656,-1.603,-2.224,-0.622,1.913,-0.49,-1.423,-0.68,-0.692,-0.609,-0.825,-1.06,-1.116,-0.327,0.42,0.241
0.657,-1.603,-2.227,-0.624,1.915,-0.489,-1.425,-0.68,-0.693,-0.61,-0.826,-1.06,-1.117,-0.328,0.421,0.242
0.658,-1.602,-2.225,-0.623,1.913,-0.489,-1.424,-0.679,-0.692,-0.609,-0.824,-1.057,-1.117,-0.328,0.423,0.241
0.659,-1.599,-2.221,-0.623,1.91,-0.487,-1.423,-0.679,-0.693,-0.611,-0.822,-1.058,-1.116,-0.327,0.421,0.241
0.66,-1.599,-2.223,-0.623,1.911,-0.488,-1.423,-0.679,-0.695,-0.613,-0.821,-1.057,-1.116,-0.327,0.412,0.241
0.661,-1.606,-2.228,-0.622,1.917,-0.492,-1.425,-0.68,-0.697,-0.614,-0.821,-1.059,-1.118,-0.328,0.411,0.241
0.662,-1.61,-2.231,-0.621,1.921,-0.494,-1.426,-0.68,-0.698,-0.616,-0.823,-1.06,-1.119,-0.329,0.418,0.242
0.663,-1.609,-2.228,-0.62,1.919,-0.493,-1.424,-0.68,-0.698,-0.617,-0.825,-1.06,-1.118,-0.328,0.418,0.241
0.664,-1.607,-2.229,-0.623,1.917,-0.491,-1.426,-0.683,-0.7,-0.619,-0.826,-1.063,-1.119,-0.329,0.415,0.243
0.665,-1.607,-2.231,-0.624,1.919,-0.491,-1.427,-0.683,-0.702,-0.619,-0.828,-1.062,-1.119,-0.33,0.412,0.243
0.666,-1.606,-2.227,-0.621,1.916,-0.491,-1.424,-0.683,-0.704,-0.619,-0.829,-1.063,-1.119,-0.328,0.418,0.242
0.667,-1.606,-2.225,-0.619,1.915,-0.493,-1.422,-0.683,-0.704,-0.62,-0.832,-1.063,-1.119,-0.328,0.421,0.244
0.668,-1.609,-2.228,-0.618,1.919,-0.495,-1.423,-0.682,-0.704,-0.619,-0.835,-1.062,-1.118,-0.329,0.425,0.245
0.669,-1.609,-2.23,-0.621,1.919,-0.493,-1.425,-0.682,-0.705,-0.622,-0.838,-1.064,-1.119,-0.33,0.429,0.245
0.67,-1.61,-2.232,-0.622,1.921,-0.493,-1.427,-0.683,-0.704,-0.623,-0.841,-1.063,-1.117,-0.329,0.422,0.246
0.671,-1.611,-2.229,-0.618,1.92,-0.496,-1.423,-0.683,-0.704,-0.623,-0.842,-1.062,-1.117,-0.329,0.427,0.245
0.672,-1.609,-2.228,-0.619,1.918,-0.494,-1.423,-0.684,-0.704,-0.621,-0.841,-1.06,-1.117,-0.328,0.426,0.246
0.673,-1.605,-2.228,-0.622,1.917,-0.491,-1.425,-0.685,-0.705,-0.622,-0.842,-1.062,-1.117,-0.328,0.422,0.248
0.674,-1.601,-2.223,-0.622,1.912,-0.489,-1.423,-0.686,-0.707,-0.625,-0.844,-1.064,-1.117,-0.328,0.43,0.249
0.675,-1.607,-2.227,-0.621,1.917,-0.492,-1.423,-0.688,-0.708,-0.627,-0.843,-1.063,-1.117,-0.329,0.427,0.249
0.676,-1.613,-2.231,-0.618,1.921,-0.497,-1.424,-0.686,-0.709,-0.627,-0.842,-1.063,-1.117,-0.328,0.421,0.249
0.677,-1.615,-2.232,-0.617,1.923,-0.498,-1.424,-0.688,-0.711,-0.627,-0.843,-1.064,-1.117,-0.329,0.42,0.249
0.678,-1.615,-2.233,-0.619,1.924,-0.497,-1.426,-0.69,-0.711,-0.629,-0.842,-1.063,-1.117,-0.329,0.417,0.25
0.679,-1.61,-2.231,-0.621,1.921,-0.494,-1.426,-0.689,-0.709,-0.628,-0.838,-1.062,-1.114,-0.326,0.418,0.249
0.68,-1.611,-2.23,-0.62,1.921,-0.495,-1.425,-0.69,-0.709,-0.629,-0.835,-1.06,-1.113,-0.327,0.416,0.25
0.681,-1.609,-2.232,-0.623,1.92,-0.492,-1.427,-0.689,-0.707,-0.628,-0.835,-1.06,-1.111,-0.326,0.413,0.25
0.682,-1.605,-2.229,-0.624,1.917,-0.49,-1.427,-0.69,-0.707,-0.628,-0.837,-1.06,-1.112,-0.325,0.41,0.25
0.683,-1.61,-2.228,-0.619,1.919,-0.495,-1.423,-0.691,-0.707,-0.629,-0.836,-1.056,-1.111,-0.327,0.411,0.248
0.684,-1.611,-2.228,-0.618,1.919,-0.496,-1.423,-0.69,-0.709,-0.63,-0.839,-1.056,-1.111,-0.326,0.416,0.249
0.685,-1.608,-2.224,-0.616,1.916,-0.495,-1.42,-0.692,-0.708,-0.629,-0.839,-1.056,-1.111,-0.326,0.418,0.25
0.686,-1.609,-2.223,-0.614,1.916,-0.497,-1.419,-0.694,-0.706,-0.628,-0.837,-1.054,-1.109,-0.324,0.413,0.251
0.687,-1.605,-2.223,-0.618,1.913,-0.492,-1.42,-0.696,-0.71,-0.631,-0.841,-1.054,-1.109,-0.323,0.409,0.252
0.688,-1.605,-2.222,-0.617,1.914,-0.493,-1.419,-0.696,-0.71,-0.632,-0.843,-1.055,-1.109,-0.323,0.417,0.251
0.689,-1.613,-2.225,-0.613,1.919,-0.499,-1.419,-0.697,-0.71,-0.632,-0.846,-1.058,-1.11,-0.324,0.418,0.252
0.69,-1.615,-2.229,-0.614,1.922,-0.5,-1.421,-0.696,-0.71,-0.633,-0.851,-1.057,-1.111,-0.325,0.411,0.253
0.691,-1.611,-2.223,-0.611,1.917,-0.5,-1.417,-0.699,-0.713,-0.636,-0.854,-1.056,-1.11,-0.322,0.419,0.252
0.692,-1.609,-2.218,-0.61,1.913,-0.499,-1.413,-0.7,-0.713,-0.634,-0.852,-1.054,-1.109,-0.322,0.422,0.248
0.693,-1.607,-2.218,-0.611,1.913,-0.498,-1.414,-0.701,-0.71,-0.633,-0.85,-1.054,-1.107,-0.321,0.423,0.248
0.694,-1.607,-2.213,-0.607,1.909,-0.499,-1.41,-0.704,-0.711,-0.635,-0.85,-1.053,-1.108,-0.319,0.432,0.249
0.695,-1.605,-2.211,-0.607,1.908,-0.499,-1.409,-0.704,-0.711,-0.634,-0.85,-1.051,-1.108,-0.319,0.432,0.25
0.696,-1.603,-2.208,-0.606,1.906,-0.498,-1.407,-0.707,-0.713,-0.635,-0.852,-1.052,-1.107,-0.318,0.431,0.247
0.697,-1.605,-2.209,-0.605,1.907,-0.499,-1.407,-0.706,-0.712,-0.635,-0.851,-1.05,-1.106,-0.316,0.431,0.248
0.698,-1.608,-2.212,-0.605,1.91,-0.501,-1.408,-0.707,-0.712,-0.634,-0.849,-1.05,-1.105,-0.316,0.427,0.251
0.699,-1.609,-2.211,-0.602,1.91,-0.503,-1.406,-0.71,-0.714,-0.637,-0.848,-1.052,-1.107,-0.316,0.424,0.25
0.7,-1.605,-2.208,-0.603,1.906,-0.501,-1.405,-0.71,-0.713,-0.638,-0.844,-1.052,-1.105,-0.314,0.43,0.251
0.701,-1.601,-2.207,-0.607,1.903,-0.496,-1.407,-0.713,-0.715,-0.636,-0.841,-1.051,-1.105,-0.311,0.432,0.252
0.702,-1.604,-2.211,-0.608,1.907,-0.498,-1.409,-0.714,-0.714,-0.635,-0.842,-1.05,-1.105,-0.31,0.429,0.252
0.703,-1.603,-2.209,-0.607,1.907,-0.497,-1.408,-0.715,-0.713,-0.634,-0.844,-1.05,-1.104,-0.309,0.435,0.252
0.704,-1.603,-2.209,-0.607,1.905,-0.497,-1.407,-0.717,-0.715,-0.637,-0.845,-1.049,-1.105,-0.309,0.434,0.253
0.705,-1.607,-2.214,-0.607,1.911,-0.5,-1.411,-0.717,-0.714,-0.637,-0.847,-1.049,-1.105,-0.31,0.434,0.253
0.706,-1.61,-2.216,-0.606,1.913,-0.501,-1.411,-0.716,-0.713,-0.634,-0.846,-1.046,-1.103,-0.308,0.438,0.253
0.707,-1.609,-2.214,-0.606,1.911,-0.5,-1.41,-0.719,-0.714,-0.635,-0.847,-1.046,-1.103,-0.307,0.437,0.255
0.708,-1.605,-2.209,-0.604,1.908,-0.5,-1.407,-0.723,-0.718,-0.639,-0.851,-1.046,-1.105,-0.307,0.433,0.254
0.709,-1.607,-2.208,-0.6,1.907,-0.503,-1.403,-0.722,-0.718,-0.639,-0.854,-1.043,-1.105,-0.305,0.431,0.255
0.71,-1.611,-2.208,-0.598,1.909,-0.506,-1.403,-0.724,-0.718,-0.64,-0.857,-1.046,-1.106,-0.306,0.434,0.255
0.711,-1.609,-2.209,-0.6,1.909,-0.504,-1.405,-0.725,-0.717,-0.641,-0.858,-1.044,-1.105,-0.306,0.432,0.253
0.712,-1.614,-2.215,-0.602,1.915,-0.506,-1.408,-0.725,-0.717,-0.64,-0.858,-1.042,-1.105,-0.306,0.433,0.253
0.713,-1.615,-2.217,-0.603,1.917,-0.506,-1.41,-0.726,-0.719,-0.641,-0.858,-1.044,-1.106,-0.306,0.434,0.254
0.714,-1.611,-2.216,-0.604,1.913,-0.503,-1.41,-0.727,-0.718,-0.639,-0.857,-1.044,-1.105,-0.305,0.433,0.255
0.715,-1.614,-2.214,-0.6,1.914,-0.506,-1.407,-0.727,-0.718,-0.64,-0.856,-1.044,-1.105,-0.305,0.435,0.255
0.716,-1.611,-2.212,-0.601,1.911,-0.504,-1.406,-0.729,-0.718,-0.639,-0.854,-1.043,-1.105,-0.303,0.434,0.255
0.717,-1.611,-2.214,-0.604,1.913,-0.503,-1.409,-0.732,-0.718,-0.637,-0.855,-1.044,-1.104,-0.304,0.433,0.254
0.718,-1.612,-2.219,-0.607,1.915,-0.502,-1.413,-0.729,-0.718,-0.637,-0.852,-1.045,-1.104,-0.304,0.435,0.254
0.719,-1.613,-2.221,-0.61,1.917,-0.501,-1.415,-0.729,-0.72,-0.639,-0.849,-1.045,-1.105,-0.304,0.437,0.254
0.72,-1.617,-2.223,-0.606,1.92,-0.505,-1.415,-0.729,-0.72,-0.637,-0.846,-1.044,-1.105,-0.307,0.431,0.253
0.721,-1.613,-2.221,-0.608,1.917,-0.502,-1.414,-0.729,-0.717,-0.634,-0.842,-1.044,-1.103,-0.305,0.433,0.253
0.722,-1.615,-2.22,-0.606,1.917,-0.504,-1.413,-0.729,-0.717,-0.635,-0.845,-1.045,-1.103,-0.305,0.429,0.253
0.723,-1.617,-2.224,-0.608,1.921,-0.504,-1.416,-0.728,-0.718,-0.636,-0.846,-1.045,-1.104,-0.307,0.424,0.253
0.724,-1.612,-2.223,-0.611,1.917,-0.5,-1.417,-0.727,-0.72,-0.636,-0.849,-1.045,-1.105,-0.306,0.43,0.254
0.725,-1.613,-2.223,-0.609,1.918,-0.502,-1.416,-0.727,-0.72,-0.636,-0.851,-1.046,-1.105,-0.307,0.433,0.254
0.726,-1.62,-2.228,-0.608,1.924,-0.505,-1.418,-0.728,-0.72,-0.639,-0.851,-1.046,-1.105,-0.307,0.426,0.255
0.727,-1.623,-2.232,-0.608,1.927,-0.507,-1.42,-0.728,-0.722,-0.64,-0.854,-1.046,-1.105,-0.308,0.421,0.255
0.728,-1.621,-2.231,-0.61,1.926,-0.505,-1.421,-0.728,-0.724,-0.64,-0.856,-1.049,-1.107,-0.309,0.426,0.254
0.729,-1.623,-2.231,-0.608,1.926,-0.507,-1.419,-0.729,-0.723,-0.639,-0.858,-1.048,-1.109,-0.309,0.427,0.252
0.73,-1.622,-2.232,-0.611,1.927,-0.505,-1.421,-0.73,-0.722,-0.635,-0.859,-1.048,-1.109,-0.308,0.43,0.252
0.731,-1.62,-2.232,-0.613,1.926,-0.503,-1.423,-0.728,-0.72,-0.633,-0.859,-1.047,-1.107,-0.307,0.434,0.253
0.732,-1.623,-2.232,-0.609,1.928,-0.506,-1.421,-0.728,-0.719,-0.632,-0.859,-1.047,-1.105,-0.307,0.431,0.253
0.733,-1.621,-2.232,-0.612,1.927,-0.504,-1.422,-0.731,-0.72,-0.632,-0.856,-1.048,-1.105,-0.306,0.431,0.253
0.734,-1.621,-2.232,-0.611,1.927,-0.505,-1.421,-0.73,-0.719,-0.63,-0.856,-1.048,-1.106,-0.308,0.431,0.253
0.735,-1.622,-2.233,-0.612,1.927,-0.504,-1.423,-0.731,-0.721,-0.631,-0.858,-1.051,-1.108,-0.308,0.43,0.253
0.736,-1.623,-2.233,-0.612,1.928,-0.505,-1.423,-0.731,-0.721,-0.633,-0.858,-1.051,-1.109,-0.308,0.429,0.252
0.737,-1.623,-2.236,-0.613,1.929,-0.504,-1.424,-0.73,-0.719,-0.633,-0.857,-1.05,-1.107,-0.307,0.431,0.253
0.738,-1.619,-2.237,-0.618,1.929,-0.501,-1.427,-0.73,-0.72,-0.632,-0.854,-1.051,-1.107,-0.308,0.431,0.252
0.739,-1.625,-2.237,-0.613,1.931,-0.506,-1.425,-0.731,-0.721,-0.632,-0.852,-1.052,-1.108,-0.309,0.426,0.251
0.74,-1.623,-2.237,-0.614,1.93,-0.504,-1.425,-0.731,-0.72,-0.633,-0.85,-1.052,-1.108,-0.306,0.423,0.253
0.741,-1.621,-2.236,-0.616,1.929,-0.502,-1.426,-0.732,-0.72,-0.632,-0.845,-1.05,-1.108,-0.307,0.422,0.252
0.742,-1.619,-2.238,-0.62,1.929,-0.499,-1.429,-0.734,-0.719,-0.631,-0.846,-1.054,-1.108,-0.306,0.423,0.252
0.743,-1.619,-2.24,-0.622,1.929,-0.498,-1.431,-0.733,-0.718,-0.631,-0.848,-1.056,-1.108,-0.306,0.424,0.254
0.744,-1.622,-2.239,-0.618,1.931,-0.501,-1.428,-0.734,-0.717,-0.63,-0.848,-1.051,-1.107,-0.304,0.426,0.254
0.745,-1.621,-2.239,-0.618,1.93,-0.501,-1.429,-0.733,-0.717,-0.628,-0.848,-1.05,-1.107,-0.302,0.424,0.255
0.746,-1.625,-2.243,-0.618,1.934,-0.503,-1.43,-0.73,-0.718,-0.628,-0.849,-1.052,-1.108,-0.304,0.419,0.254
0.747,-1.624,-2.24,-0.616,1.932,-0.503,-1.428,-0.731,-0.717,-0.629,-0.849,-1.052,-1.107,-0.302,0.427,0.254
0.748,-1.622,-2.239,-0.618,1.931,-0.501,-1.428,-0.732,-0.717,-0.63,-0.851,-1.053,-1.108,-0.302,0.43,0.256
0.749,-1.625,-2.241,-0.617,1.933,-0.503,-1.429,-0.731,-0.718,-0.63,-0.854,-1.054,-1.109,-0.303,0.424,0.256
0.75,-1.627,-2.24,-0.613,1.933,-0.506,-1.426,-0.732,-0.719,-0.631,-0.856,-1.054,-1.111,-0.303,0.425,0.256
0.751,-1.629,-2.24,-0.611,1.934,-0.508,-1.425,-0.731,-0.718,-0.631,-0.857,-1.054,-1.111,-0.303,0.429,0.254
0.752,-1.629,-2.24,-0.611,1.934,-0.508,-1.425,-0.73,-0.718,-0.631,-0.858,-1.055,-1.112,-0.303,0.434,0.254
0.753,-1.628,-2.24,-0.612,1.933,-0.507,-1.425,-0.73,-0.718,-0.632,-0.856,-1.058,-1.114,-0.303,0.438,0.254
0.754,-1.629,-2.241,-0.612,1.935,-0.508,-1.427,-0.732,-0.718,-0.633,-0.854,-1.056,-1.113,-0.303,0.435,0.254
0.755,-1.629,-2.242,-0.613,1.935,-0.507,-1.427,-0.731,-0.717,-0.631,-0.85,-1.054,-1.111,-0.302,0.43,0.255
0.756,-1.628,-2.244,-0.617,1.937,-0.505,-1.431,-0.73,-0.718,-0.628,-0.849,-1.054,-1.113,-0.302,0.43,0.253
0.757,-1.635,-2.249,-0.614,1.942,-0.51,-1.432,-0.729,-0.721,-0.631,-0.85,-1.056,-1.115,-0.305,0.43,0.252
0.758,-1.636,-2.249,-0.614,1.943,-0.511,-1.431,-0.727,-0.722,-0.63,-0.848,-1.056,-1.114,-0.305,0.426,0.253
0.759,-1.637,-2.249,-0.613,1.944,-0.511,-1.431,-0.728,-0.722,-0.629,-0.847,-1.058,-1.116,-0.305,0.421,0.253
0.76,-1.635,-2.249,-0.614,1.943,-0.51,-1.432,-0.73,-0.722,-0.628,-0.844,-1.058,-1.115,-0.303,0.422,0.252
0.761,-1.636,-2.251,-0.615,1.944,-0.51,-1.433,-0.73,-0.722,-0.628,-0.842,-1.057,-1.117,-0.303,0.419,0.251
0.762,-1.639,-2.252,-0.613,1.946,-0.513,-1.433,-0.73,-0.721,-0.629,-0.843,-1.058,-1.118,-0.304,0.421,0.25
0.763,-1.635,-2.255,-0.62,1.944,-0.507,-1.438,-0.729,-0.721,-0.628,-0.843,-1.06,-1.117,-0.305,0.417,0.251
0.764,-1.633,-2.256,-0.624,1.944,-0.504,-1.44,-0.727,-0.72,-0.627,-0.844,-1.062,-1.115,-0.305,0.406,0.249
0.765,-1.633,-2.253,-0.621,1.944,-0.506,-1.437,-0.728,-0.719,-0.627,-0.844,-1.06,-1.115,-0.304,0.413,0.25
0.766,-1.633,-2.255,-0.623,1.944,-0.504,-1.438,-0.729,-0.716,-0.628,-0.842,-1.061,-1.115,-0.303,0.417,0.251
0.767,-1.633,-2.255,-0.622,1.944,-0.505,-1.438,-0.728,-0.717,-0.629,-0.843,-1.061,-1.115,-0.304,0.418,0.248
0.768,-1.633,-2.254,-0.621,1.944,-0.506,-1.437,-0.73,-0.717,-0.629,-0.844,-1.06,-1.117,-0.305,0.422,0.249
0.769,-1.639,-2.255,-0.617,1.946,-0.51,-1.435,-0.727,-0.713,-0.628,-0.846,-1.061,-1.117,-0.307,0.424,0.248
0.77,-1.641,-2.256,-0.616,1.948,-0.512,-1.435,-0.728,-0.715,-0.629,-0.849,-1.062,-1.119,-0.308,0.419,0.248
0.771,-1.643,-2.258,-0.615,1.95,-0.513,-1.437,-0.729,-0.717,-0.631,-0.853,-1.063,-1.119,-0.308,0.419,0.248
0.772,-1.642,-2.256,-0.615,1.949,-0.513,-1.435,-0.727,-0.718,-0.631,-0.854,-1.062,-1.119,-0.308,0.425,0.248
0.773,-1.637,-2.254,-0.617,1.946,-0.51,-1.435,-0.729,-0.718,-0.63,-0.851,-1.06,-1.117,-0.306,0.419,0.249
0.774,-1.64,-2.256,-0.616,1.948,-0.512,-1.435,-0.73,-0.717,-0.631,-0.851,-1.06,-1.119,-0.307,0.416,0.248
0.775,-1.644,-2.258,-0.614,1.95,-0.514,-1.436,-0.73,-0.719,-0.633,-0.85,-1.063,-1.121,-0.309,0.421,0.248
0.776,-1.647,-2.261,-0.615,1.954,-0.515,-1.438,-0.729,-0.721,-0.634,-0.849,-1.064,-1.121,-0.308,0.417,0.248
0.777,-1.644,-2.264,-0.62,1.954,-0.511,-1.442,-0.73,-0.722,-0.633,-0.849,-1.064,-1.122,-0.308,0.416,0.248
0.778,-1.645,-2.265,-0.62,1.955,-0.512,-1.442,-0.728,-0.721,-0.634,-0.849,-1.065,-1.123,-0.309,0.417,0.248
0.779,-1.651,-2.269,-0.619,1.96,-0.515,-1.444,-0.726,-0.72,-0.634,-0.848,-1.062,-1.125,-0.312,0.416,0.248
0.78,-1.648,-2.27,-0.622,1.959,-0.512,-1.446,-0.727,-0.72,-0.633,-0.847,-1.065,-1.125,-0.311,0.417,0.248
0.781,-1.647,-2.272,-0.625,1.959,-0.51,-1.448,-0.727,-0.72,-0.635,-0.847,-1.065,-1.125,-0.313,0.416,0.247
0.782,-1.647,-2.273,-0.626,1.96,-0.51,-1.45,-0.727,-0.721,-0.636,-0.847,-1.065,-1.126,-0.315,0.413,0.247
0.783,-1.651,-2.275,-0.624,1.964,-0.513,-1.45,-0.727,-0.722,-0.637,-0.849,-1.068,-1.127,-0.314,0.408,0.248
0.784,-1.654,-2.278,-0.625,1.966,-0.514,-1.452,-0.729,-0.721,-0.638,-0.85,-1.069,-1.129,-0.315,0.408,0.248
0.785,-1.658,-2.28,-0.622,1.969,-0.517,-1.451,-0.726,-0.72,-0.637,-0.851,-1.069,-1.129,-0.317,0.413,0.247
0.786,-1.657,-2.277,-0.62,1.967,-0.518,-1.449,-0.726,-0.722,-0.639,-0.853,-1.071,-1.13,-0.317,0.414,0.247
0.787,-1.656,-2.276,-0.62,1.966,-0.518,-1.448,-0.728,-0.72,-0.639,-0.853,-1.071,-1.131,-0.317,0.412,0.247
0.788,-1.659,-2.281,-0.622,1.97,-0.518,-1.452,-0.726,-0.719,-0.639,-0.853,-1.07,-1.129,-0.318,0.41,0.249
0.789,-1.657,-2.28,-0.624,1.968,-0.516,-1.452,-0.728,-0.722,-0.64,-0.857,-1.073,-1.13,-0.318,0.415,0.25
0.79,-1.657,-2.276,-0.619,1.966,-0.518,-1.448,-0.729,-0.723,-0.641,-0.863,-1.074,-1.132,-0.318,0.423,0.25
0.791,-1.655,-2.273,-0.618,1.964,-0.518,-1.446,-0.73,-0.723,-0.642,-0.865,-1.073,-1.133,-0.318,0.426,0.25
0.792,-1.652,-2.271,-0.619,1.961,-0.516,-1.444,-0.73,-0.722,-0.642,-0.864,-1.073,-1.133,-0.319,0.42,0.252
0.793,-1.651,-2.274,-0.623,1.962,-0.513,-1.448,-0.728,-0.723,-0.643,-0.863,-1.075,-1.133,-0.321,0.416,0.252
0.794,-1.653,-2.272,-0.619,1.962,-0.516,-1.446,-0.728,-0.725,-0.643,-0.863,-1.073,-1.133,-0.322,0.418,0.251
0.795,-1.651,-2.269,-0.618,1.96,-0.516,-1.444,-0.729,-0.726,-0.642,-0.864,-1.073,-1.135,-0.32,0.416,0.251
0.796,-1.652,-2.272,-0.62,1.962,-0.515,-1.446,-0.728,-0.728,-0.643,-0.863,-1.075,-1.135,-0.321,0.416,0.251
0.797,-1.659,-2.276,-0.617,1.968,-0.521,-1.446,-0.725,-0.728,-0.644,-0.863,-1.075,-1.137,-0.324,0.421,0.251
0.798,-1.659,-2.277,-0.619,1.968,-0.52,-1.448,-0.725,-0.729,-0.644,-0.86,-1.075,-1.137,-0.323,0.416,0.248
0.799,-1.657,-2.277,-0.621,1.968,-0.517,-1.449,-0.725,-0.728,-0.644,-0.855,-1.075,-1.137,-0.322,0.414,0.246
0.8,-1.654,-2.277,-0.624,1.966,-0.514,-1.451,-0.726,-0.726,-0.643,-0.852,-1.075,-1.135,-0.322,0.414,0.247
0.801,-1.655,-2.279,-0.624,1.967,-0.515,-1.451,-0.725,-0.726,-0.644,-0.849,-1.073,-1.133,-0.321,0.407,0.249
0.802,-1.657,-2.279,-0.622,1.968,-0.517,-1.45,-0.723,-0.728,-0.643,-0.849,-1.074,-1.134,-0.322,0.405,0.25
0.803,-1.657,-2.281,-0.625,1.969,-0.515,-1.452,-0.723,-0.727,-0.643,-0.852,-1.077,-1.137,-0.323,0.405,0.251
0.804,-1.655,-2.283,-0.628,1.968,-0.512,-1.455,-0.723,-0.725,-0.643,-0.854,-1.078,-1.135,-0.322,0.406,0.256
0.805,-1.652,-2.282,-0.63,1.967,-0.51,-1.456,-0.725,-0.727,-0.643,-0.854,-1.08,-1.135,-0.32,0.411,0.255
0.806,-1.661,-2.287,-0.625,1.974,-0.517,-1.456,-0.724,-0.725,-0.643,-0.855,-1.081,-1.137,-0.323,0.41,0.249
0.807,-1.664,-2.29,-0.626,1.977,-0.518,-1.458,-0.724,-0.726,-0.644,-0.858,-1.08,-1.137,-0.323,0.404,0.252
0.808,-1.663,-2.291,-0.628,1.976,-0.517,-1.46,-0.723,-0.726,-0.644,-0.862,-1.079,-1.137,-0.322,0.403,0.254
0.809,-1.663,-2.292,-0.628,1.978,-0.517,-1.46,-0.727,-0.727,-0.645,-0.864,-1.081,-1.139,-0.323,0.404,0.255
0.81,-1.665,-2.292,-0.627,1.979,-0.518,-1.46,-0.727,-0.728,-0.647,-0.867,-1.084,-1.139,-0.323,0.405,0.256
0.811,-1.667,-2.292,-0.625,1.98,-0.52,-1.459,-0.723,-0.725,-0.646,-0.869,-1.082,-1.139,-0.324,0.406,0.255
0.812,-1.661,-2.291,-0.629,1.976,-0.515,-1.46,-0.726,-0.727,-0.647,-0.87,-1.081,-1.139,-0.322,0.409,0.256
0.813,-1.657,-2.288,-0.629,1.972,-0.513,-1.458,-0.726,-0.726,-0.647,-0.869,-1.08,-1.139,-0.32,0.409,0.257
0.814,-1.659,-2.287,-0.628,1.973,-0.515,-1.458,-0.727,-0.728,-0.648,-0.867,-1.08,-1.141,-0.32,0.412,0.257
0.815,-1.662,-2.288,-0.626,1.976,-0.517,-1.458,-0.728,-0.73,-0.649,-0.868,-1.082,-1.141,-0.321,0.411,0.256
0.816,-1.663,-2.289,-0.626,1.976,-0.518,-1.458,-0.726,-0.731,-0.649,-0.866,-1.081,-1.141,-0.319,0.403,0.256
0.817,-1.659,-2.287,-0.627,1.973,-0.515,-1.457,-0.727,-0.73,-0.648,-0.864,-1.079,-1.139,-0.319,0.414,0.257
0.818,-1.656,-2.283,-0.626,1.97,-0.514,-1.454,-0.725,-0.729,-0.648,-0.862,-1.077,-1.139,-0.319,0.418,0.256
0.819,-1.653,-2.28,-0.628,1.966,-0.511,-1.454,-0.725,-0.73,-0.649,-0.86,-1.077,-1.139,-0.32,0.415,0.254
0.82,-1.649,-2.277,-0.628,1.964,-0.51,-1.453,-0.728,-0.729,-0.647,-0.859,-1.079,-1.139,-0.319,0.414,0.255
0.821,-1.655,-2.283,-0.627,1.969,-0.513,-1.454,-0.726,-0.732,-0.648,-0.858,-1.081,-1.14,-0.32,0.403,0.257
0.822,-1.657,-2.284,-0.627,1.971,-0.514,-1.456,-0.725,-0.732,-0.649,-0.858,-1.081,-1.141,-0.321,0.406,0.256
0.823,-1.655,-2.282,-0.627,1.969,-0.513,-1.454,-0.725,-0.73,-0.645,-0.856,-1.081,-1.139,-0.321,0.408,0.256
0.824,-1.657,-2.284,-0.627,1.97,-0.514,-1.456,-0.723,-0.731,-0.645,-0.859,-1.082,-1.14,-0.324,0.404,0.255
0.825,-1.655,-2.282,-0.627,1.968,-0.513,-1.455,-0.722,-0.73,-0.644,-0.859,-1.079,-1.14,-0.323,0.41,0.256
0.826,-1.653,-2.281,-0.629,1.967,-0.511,-1.455,-0.723,-0.729,-0.645,-0.857,-1.079,-1.138,-0.323,0.414,0.255
0.827,-1.655,-2.281,-0.626,1.968,-0.513,-1.454,-0.724,-0.729,-0.648,-0.859,-1.079,-1.14,-0.323,0.411,0.256
0.828,-1.657,-2.28,-0.624,1.968,-0.516,-1.452,-0.724,-0.728,-0.647,-0.86,-1.079,-1.138,-0.321,0.413,0.257
0.829,-1.655,-2.278,-0.623,1.966,-0.515,-1.45,-0.723,-0.725,-0.648,-0.861,-1.08,-1.137,-0.322,0.418,0.255
0.83,-1.649,-2.273,-0.625,1.962,-0.512,-1.449,-0.723,-0.726,-0.649,-0.864,-1.079,-1.139,-0.323,0.414,0.254
0.831,-1.649,-2.275,-0.625,1.962,-0.511,-1.45,-0.721,-0.726,-0.647,-0.868,-1.079,-1.137,-0.321,0.41,0.257
0.832,-1.651,-2.276,-0.626,1.964,-0.512,-1.451,-0.721,-0.725,-0.646,-0.868,-1.079,-1.137,-0.322,0.407,0.257
0.833,-1.647,-2.275,-0.627,1.961,-0.509,-1.451,-0.723,-0.724,-0.648,-0.865,-1.079,-1.137,-0.322,0.412,0.256
0.834,-1.649,-2.274,-0.625,1.962,-0.511,-1.45,-0.723,-0.723,-0.646,-0.862,-1.079,-1.137,-0.322,0.409,0.257
0.835,-1.651,-2.274,-0.623,1.962,-0.513,-1.448,-0.721,-0.725,-0.647,-0.863,-1.078,-1.137,-0.324,0.399,0.257
0.836,-1.649,-2.274,-0.625,1.962,-0.512,-1.449,-0.721,-0.726,-0.648,-0.864,-1.08,-1.137,-0.324,0.403,0.256
0.837,-1.651,-2.276,-0.626,1.964,-0.512,-1.451,-0.72,-0.726,-0.646,-0.861,-1.081,-1.137,-0.324,0.406,0.256
0.838,-1.653,-2.278,-0.625,1.966,-0.513,-1.452,-0.718,-0.726,-0.646,-0.861,-1.083,-1.139,-0.325,0.402,0.256
0.839,-1.647,-2.275,-0.628,1.961,-0.509,-1.452,-0.719,-0.725,-0.645,-0.858,-1.081,-1.137,-0.324,0.398,0.255
0.84,-1.643,-2.272,-0.629,1.957,-0.506,-1.45,-0.717,-0.725,-0.644,-0.855,-1.079,-1.136,-0.324,0.401,0.256
0.841,-1.641,-2.27,-0.628,1.956,-0.506,-1.449,-0.716,-0.727,-0.646,-0.854,-1.079,-1.137,-0.324,0.405,0.254
0.842,-1.643,-2.271,-0.627,1.957,-0.508,-1.448,-0.718,-0.727,-0.645,-0.854,-1.079,-1.139,-0.326,0.404,0.252
0.843,-1.643,-2.272,-0.629,1.958,-0.506,-1.45,-0.717,-0.726,-0.646,-0.856,-1.079,-1.138,-0.326,0.406,0.253
0.844,-1.644,-2.273,-0.629,1.958,-0.507,-1.451,-0.717,-0.726,-0.648,-0.856,-1.081,-1.139,-0.326,0.408,0.251
0.845,-1.647,-2.273,-0.626,1.96,-0.51,-1.45,-0.716,-0.726,-0.649,-0.857,-1.08,-1.139,-0.327,0.406,0.251
0.846,-1.645,-2.272,-0.627,1.959,-0.508,-1.45,-0.715,-0.726,-0.649,-0.858,-1.079,-1.14,-0.327,0.402,0.251
0.847,-1.649,-2.276,-0.627,1.963,-0.51,-1.452,-0.714,-0.728,-0.65,-0.86,-1.083,-1.143,-0.329,0.404,0.253
0.848,-1.649,-2.277,-0.629,1.963,-0.509,-1.453,-0.715,-0.729,-0.649,-0.863,-1.083,-1.141,-0.328,0.407,0.254
0.849,-1.647,-2.273,-0.626,1.96,-0.51,-1.45,-0.715,-0.727,-0.648,-0.863,-1.081,-1.139,-0.327,0.416,0.252
0.85,-1.649,-2.275,-0.625,1.962,-0.511,-1.45,-0.712,-0.726,-0.648,-0.864,-1.081,-1.137,-0.326,0.411,0.253
0.851,-1.646,-2.276,-0.63,1.961,-0.507,-1.453,-0.714,-0.727,-0.648,-0.868,-1.083,-1.139,-0.326,0.403,0.253
0.852,-1.645,-2.275,-0.631,1.96,-0.506,-1.453,-0.717,-0.725,-0.647,-0.868,-1.082,-1.139,-0.326,0.408,0.253
0.853,-1.647,-2.278,-0.631,1.963,-0.507,-1.454,-0.715,-0.724,-0.647,-0.868,-1.081,-1.139,-0.327,0.404,0.253
0.854,-1.649,-2.279,-0.63,1.964,-0.509,-1.454,-0.717,-0.727,-0.649,-0.869,-1.082,-1.139,-0.326,0.401,0.254
0.855,-1.65,-2.28,-0.63,1.965,-0.509,-1.456,-0.716,-0.727,-0.65,-0.868,-1.083,-1.139,-0.326,0.398,0.254
0.856,-1.649,-2.279,-0.63,1.964,-0.509,-1.454,-0.717,-0.727,-0.648,-0.868,-1.083,-1.139,-0.326,0.395,0.254
0.857,-1.646,-2.276,-0.63,1.961,-0.507,-1.453,-0.719,-0.727,-0.647,-0.867,-1.083,-1.141,-0.325,0.4,0.255
0.858,-1.647,-2.276,-0.628,1.962,-0.509,-1.452,-0.716,-0.726,-0.646,-0.864,-1.084,-1.139,-0.327,0.403,0.252
0.859,-1.65,-2.279,-0.629,1.964,-0.51,-1.454,-0.718,-0.73,-0.651,-0.865,-1.085,-1.142,-0.327,0.401,0.253
0.86,-1.647,-2.28,-0.634,1.964,-0.506,-1.458,-0.719,-0.729,-0.651,-0.861,-1.083,-1.14,-0.324,0.398,0.255
0.861,-1.65,-2.283,-0.632,1.966,-0.508,-1.458,-0.718,-0.729,-0.65,-0.859,-1.083,-1.141,-0.326,0.399,0.253
0.862,-1.651,-2.281,-0.63,1.966,-0.509,-1.456,-0.72,-0.729,-0.651,-0.859,-1.083,-1.142,-0.327,0.4,0.253
0.863,-1.649,-2.28,-0.63,1.964,-0.509,-1.455,-0.72,-0.727,-0.649,-0.858,-1.081,-1.139,-0.326,0.405,0.255
0.864,-1.649,-2.28,-0.632,1.964,-0.508,-1.456,-0.72,-0.726,-0.649,-0.861,-1.081,-1.141,-0.328,0.406,0.253
0.865,-1.646,-2.279,-0.633,1.962,-0.505,-1.456,-0.719,-0.726,-0.649,-0.86,-1.079,-1.141,-0.328,0.401,0.252
0.866,-1.647,-2.28,-0.633,1.964,-0.506,-1.457,-0.719,-0.728,-0.649,-0.861,-1.079,-1.14,-0.327,0.4,0.255
0.867,-1.648,-2.28,-0.632,1.964,-0.507,-1.456,-0.72,-0.728,-0.65,-0.863,-1.079,-1.141,-0.328,0.401,0.254
0.868,-1.651,-2.278,-0.627,1.965,-0.512,-1.452,-0.719,-0.727,-0.651,-0.866,-1.078,-1.142,-0.328,0.406,0.254
0.869,-1.655,-2.276,-0.622,1.965,-0.516,-1.448,-0.721,-0.731,-0.653,-0.871,-1.08,-1.145,-0.33,0.408,0.253
0.87,-1.653,-2.273,-0.621,1.963,-0.515,-1.447,-0.721,-0.729,-0.653,-0.874,-1.081,-1.145,-0.331,0.41,0.252
0.871,-1.651,-2.274,-0.624,1.962,-0.513,-1.448,-0.721,-0.727,-0.65,-0.874,-1.08,-1.143,-0.329,0.41,0.255
0.872,-1.647,-2.274,-0.627,1.96,-0.509,-1.451,-0.723,-0.73,-0.651,-0.875,-1.082,-1.142,-0.328,0.407,0.255
0.873,-1.647,-2.276,-0.629,1.962,-0.509,-1.453,-0.722,-0.73,-0.653,-0.874,-1.083,-1.143,-0.327,0.406,0.256
0.874,-1.651,-2.279,-0.628,1.965,-0.511,-1.454,-0.719,-0.73,-0.653,-0.872,-1.081,-1.142,-0.328,0.403,0.256
0.875,-1.647,-2.275,-0.628,1.96,-0.508,-1.452,-0.719,-0.73,-0.653,-0.871,-1.083,-1.143,-0.328,0.404,0.255
0.876,-1.647,-2.271,-0.624,1.959,-0.511,-1.447,-0.72,-0.73,-0.652,-0.872,-1.083,-1.144,-0.329,0.399,0.257
0.877,-1.652,-2.271,-0.619,1.961,-0.516,-1.444,-0.719,-0.729,-0.651,-0.871,-1.081,-1.143,-0.33,0.398,0.258
0.878,-1.652,-2.271,-0.62,1.962,-0.516,-1.446,-0.717,-0.729,-0.652,-0.869,-1.084,-1.144,-0.332,0.405,0.255
0.879,-1.649,-2.271,-0.621,1.96,-0.514,-1.446,-0.717,-0.73,-0.653,-0.868,-1.085,-1.145,-0.332,0.407,0.254
0.88,-1.65,-2.271,-0.621,1.96,-0.514,-1.446,-0.716,-0.729,-0.652,-0.866,-1.085,-1.145,-0.332,0.406,0.253
0.881,-1.65,-2.269,-0.62,1.96,-0.514,-1.444,-0.717,-0.731,-0.652,-0.865,-1.088,-1.145,-0.333,0.404,0.254
0.882,-1.65,-2.268,-0.619,1.959,-0.515,-1.443,-0.719,-0.733,-0.654,-0.865,-1.089,-1.147,-0.334,0.406,0.253
0.883,-1.65,-2.271,-0.621,1.96,-0.514,-1.445,-0.72,-0.735,-0.656,-0.866,-1.09,-1.149,-0.334,0.406,0.252
0.884,-1.65,-2.271,-0.621,1.96,-0.514,-1.446,-0.719,-0.734,-0.655,-0.868,-1.09,-1.149,-0.335,0.409,0.254
0.885,-1.649,-2.269,-0.62,1.96,-0.515,-1.444,-0.72,-0.732,-0.653,-0.868,-1.091,-1.148,-0.335,0.41,0.254
0.886,-1.653,-2.272,-0.62,1.962,-0.516,-1.446,-0.721,-0.732,-0.654,-0.867,-1.091,-1.148,-0.335,0.406,0.253
0.887,-1.653,-2.276,-0.623,1.964,-0.514,-1.45,-0.72,-0.732,-0.653,-0.868,-1.09,-1.147,-0.334,0.406,0.253
0.888,-1.649,-2.275,-0.625,1.962,-0.511,-1.45,-0.721,-0.733,-0.655,-0.871,-1.089,-1.148,-0.334,0.403,0.253
0.889,-1.652,-2.275,-0.624,1.964,-0.514,-1.45,-0.722,-0.732,-0.657,-0.872,-1.091,-1.149,-0.335,0.406,0.252
0.89,-1.653,-2.279,-0.626,1.966,-0.513,-1.452,-0.723,-0.733,-0.656,-0.874,-1.091,-1.148,-0.333,0.407,0.253
0.891,-1.653,-2.28,-0.627,1.966,-0.512,-1.454,-0.725,-0.733,-0.659,-0.877,-1.09,-1.149,-0.334,0.408,0.252
0.892,-1.653,-2.28,-0.627,1.967,-0.512,-1.454,-0.722,-0.731,-0.656,-0.876,-1.088,-1.148,-0.333,0.407,0.251
0.893,-1.653,-2.283,-0.63,1.968,-0.511,-1.456,-0.721,-0.729,-0.655,-0.872,-1.085,-1.146,-0.333,0.402,0.249
0.894,-1.654,-2.284,-0.629,1.969,-0.512,-1.456,-0.721,-0.729,-0.657,-0.872,-1.087,-1.147,-0.333,0.401,0.25
0.895,-1.659,-2.285,-0.626,1.972,-0.515,-1.456,-0.72,-0.728,-0.655,-0.87,-1.086,-1.145,-0.333,0.405,0.249
0.896,-1.663,-2.288,-0.625,1.976,-0.518,-1.456,-0.721,-0.73,-0.656,-0.87,-1.086,-1.146,-0.333,0.401,0.249
0.897,-1.663,-2.289,-0.627,1.976,-0.517,-1.458,-0.721,-0.731,-0.657,-0.871,-1.087,-1.147,-0.333,0.396,0.251
0.898,-1.66,-2.284,-0.625,1.972,-0.517,-1.454,-0.722,-0.731,-0.658,-0.87,-1.087,-1.147,-0.333,0.399,0.25
0.899,-1.659,-2.285,-0.627,1.972,-0.515,-1.456,-0.721,-0.733,-0.658,-0.869,-1.087,-1.145,-0.331,0.396,0.251
0.9,-1.656,-2.285,-0.629,1.97,-0.513,-1.457,-0.719,-0.732,-0.656,-0.865,-1.087,-1.145,-0.33,0.395,0.253
0.901,-1.655,-2.285,-0.63,1.97,-0.512,-1.458,-0.721,-0.732,-0.656,-0.863,-1.087,-1.144,-0.329,0.398,0.253
0.902,-1.659,-2.289,-0.63,1.974,-0.514,-1.46,-0.721,-0.733,-0.657,-0.864,-1.085,-1.145,-0.329,0.398,0.253
0.903,-1.665,-2.292,-0.627,1.978,-0.518,-1.46,-0.721,-0.736,-0.66,-0.868,-1.089,-1.145,-0.328,0.397,0.254
0.904,-1.664,-2.293,-0.629,1.978,-0.517,-1.462,-0.722,-0.736,-0.66,-0.869,-1.089,-1.145,-0.329,0.396,0.254
0.905,-1.659,-2.288,-0.629,1.974,-0.515,-1.458,-0.723,-0.734,-0.659,-0.869,-1.09,-1.147,-0.331,0.4,0.254
0.906,-1.661,-2.288,-0.627,1.974,-0.516,-1.458,-0.724,-0.733,-0.658,-0.87,-1.092,-1.147,-0.331,0.401,0.254
0.907,-1.657,-2.283,-0.626,1.97,-0.515,-1.454,-0.726,-0.733,-0.659,-0.872,-1.092,-1.147,-0.331,0.404,0.255
0.908,-1.653,-2.28,-0.627,1.966,-0.512,-1.454,-0.726,-0.736,-0.662,-0.874,-1.093,-1.147,-0.33,0.404,0.256
0.909,-1.655,-2.28,-0.625,1.968,-0.514,-1.453,-0.723,-0.732,-0.659,-0.875,-1.093,-1.147,-0.332,0.401,0.256
0.91,-1.657,-2.28,-0.624,1.969,-0.516,-1.452,-0.724,-0.733,-0.659,-0.878,-1.093,-1.149,-0.332,0.407,0.256
0.911,-1.655,-2.281,-0.626,1.968,-0.514,-1.454,-0.724,-0.734,-0.66,-0.88,-1.093,-1.149,-0.331,0.411,0.258
0.912,-1.655,-2.28,-0.625,1.968,-0.514,-1.453,-0.721,-0.733,-0.659,-0.88,-1.093,-1.149,-0.334,0.41,0.256
0.913,-1.655,-2.282,-0.626,1.969,-0.514,-1.454,-0.722,-0.734,-0.66,-0.879,-1.093,-1.151,-0.334,0.411,0.253
0.914,-1.657,-2.283,-0.625,1.97,-0.515,-1.454,-0.72,-0.732,-0.658,-0.878,-1.093,-1.15,-0.334,0.415,0.254
0.915,-1.659,-2.284,-0.625,1.972,-0.517,-1.454,-0.718,-0.732,-0.658,-0.878,-1.093,-1.15,-0.334,0.413,0.253
0.916,-1.656,-2.284,-0.628,1.97,-0.513,-1.456,-0.718,-0.732,-0.656,-0.877,-1.092,-1.149,-0.333,0.415,0.253
0.917,-1.652,-2.28,-0.628,1.966,-0.511,-1.454,-0.718,-0.731,-0.656,-0.873,-1.091,-1.147,-0.331,0.411,0.253
0.918,-1.659,-2.284,-0.625,1.972,-0.516,-1.455,-0.72,-0.731,-0.659,-0.873,-1.091,-1.147,-0.332,0.405,0.254
0.919,-1.659,-2.285,-0.626,1.972,-0.516,-1.456,-0.719,-0.732,-0.659,-0.872,-1.091,-1.148,-0.332,0.406,0.253
0.92,-1.653,-2.283,-0.629,1.968,-0.511,-1.456,-0.718,-0.731,-0.659,-0.868,-1.089,-1.145,-0.33,0.402,0.252
0.921,-1.657,-2.286,-0.628,1.972,-0.514,-1.458,-0.717,-0.733,-0.66,-0.867,-1.091,-1.147,-0.332,0.404,0.252
0.922,-1.66,-2.29,-0.63,1.976,-0.514,-1.46,-0.718,-0.733,-0.661,-0.867,-1.092,-1.148,-0.333,0.405,0.252
0.923,-1.663,-2.292,-0.629,1.976,-0.516,-1.46,-0.717,-0.73,-0.659,-0.869,-1.09,-1.147,-0.336,0.402,0.252
0.924,-1.663,-2.29,-0.627,1.976,-0.517,-1.458,-0.716,-0.73,-0.66,-0.87,-1.091,-1.149,-0.337,0.399,0.252
0.925,-1.663,-2.291,-0.627,1.977,-0.517,-1.459,-0.716,-0.731,-0.662,-0.871,-1.093,-1.15,-0.338,0.398,0.253
0.926,-1.663,-2.291,-0.628,1.977,-0.516,-1.46,-0.716,-0.733,-0.662,-0.874,-1.093,-1.151,-0.339,0.397,0.253
0.927,-1.657,-2.288,-0.631,1.972,-0.512,-1.46,-0.717,-0.732,-0.661,-0.874,-1.093,-1.15,-0.338,0.4,0.251
0.928,-1.657,-2.288,-0.631,1.973,-0.512,-1.46,-0.715,-0.732,-0.659,-0.874,-1.093,-1.149,-0.339,0.401,0.251
0.929,-1.657,-2.291,-0.634,1.974,-0.511,-1.462,-0.713,-0.731,-0.661,-0.878,-1.095,-1.149,-0.339,0.394,0.253
0.93,-1.659,-2.291,-0.632,1.975,-0.513,-1.462,-0.714,-0.733,-0.662,-0.882,-1.095,-1.151,-0.34,0.399,0.253
0.931,-1.66,-2.291,-0.631,1.976,-0.514,-1.461,-0.716,-0.735,-0.663,-0.885,-1.097,-1.152,-0.338,0.4,0.253
0.932,-1.661,-2.293,-0.632,1.976,-0.513,-1.462,-0.715,-0.736,-0.661,-0.885,-1.097,-1.151,-0.338,0.403,0.253
0.933,-1.668,-2.295,-0.627,1.981,-0.52,-1.461,-0.715,-0.735,-0.661,-0.885,-1.097,-1.153,-0.339,0.405,0.253
0.934,-1.667,-2.293,-0.625,1.98,-0.52,-1.46,-0.716,-0.735,-0.662,-0.885,-1.097,-1.151,-0.338,0.4,0.253
0.935,-1.668,-2.291,-0.624,1.98,-0.521,-1.458,-0.717,-0.736,-0.664,-0.884,-1.098,-1.153,-0.338,0.398,0.254
0.936,-1.666,-2.291,-0.625,1.978,-0.519,-1.458,-0.718,-0.737,-0.664,-0.885,-1.097,-1.153,-0.337,0.401,0.255
0.937,-1.664,-2.291,-0.627,1.978,-0.518,-1.459,-0.718,-0.737,-0.664,-0.884,-1.099,-1.153,-0.336,0.402,0.255
0.938,-1.668,-2.291,-0.623,1.98,-0.522,-1.457,-0.719,-0.735,-0.664,-0.883,-1.099,-1.154,-0.334,0.405,0.255
0.939,-1.669,-2.292,-0.624,1.98,-0.522,-1.458,-0.717,-0.734,-0.663,-0.879,-1.097,-1.151,-0.333,0.405,0.253
0.94,-1.672,-2.295,-0.623,1.984,-0.524,-1.459,-0.717,-0.735,-0.665,-0.876,-1.099,-1.154,-0.336,0.401,0.252
0.941,-1.671,-2.295,-0.624,1.983,-0.523,-1.459,-0.719,-0.736,-0.665,-0.875,-1.101,-1.155,-0.337,0.407,0.253
0.942,-1.67,-2.295,-0.625,1.982,-0.522,-1.46,-0.716,-0.739,-0.665,-0.875,-1.102,-1.153,-0.338,0.409,0.253
0.943,-1.671,-2.295,-0.624,1.982,-0.523,-1.459,-0.715,-0.738,-0.665,-0.874,-1.103,-1.153,-0.338,0.405,0.253
0.944,-1.671,-2.295,-0.624,1.983,-0.523,-1.459,-0.714,-0.738,-0.664,-0.874,-1.103,-1.153,-0.339,0.404,0.254
0.945,-1.674,-2.297,-0.623,1.986,-0.525,-1.46,-0.714,-0.736,-0.662,-0.875,-1.103,-1.153,-0.339,0.401,0.254
0.946,-1.678,-2.301,-0.623,1.99,-0.527,-1.462,-0.714,-0.736,-0.663,-0.875,-1.103,-1.153,-0.339,0.4,0.254
0.947,-1.676,-2.301,-0.625,1.988,-0.525,-1.462,-0.714,-0.738,-0.664,-0.879,-1.105,-1.155,-0.341,0.399,0.253
0.948,-1.673,-2.301,-0.627,1.987,-0.522,-1.464,-0.716,-0.738,-0.665,-0.882,-1.104,-1.156,-0.341,0.396,0.253
0.949,-1.674,-2.304,-0.63,1.989,-0.521,-1.468,-0.718,-0.738,-0.664,-0.882,-1.104,-1.157,-0.34,0.405,0.253
0.95,-1.673,-2.301,-0.628,1.988,-0.522,-1.465,-0.717,-0.737,-0.663,-0.883,-1.102,-1.155,-0.34,0.416,0.253
0.951,-1.682,-2.307,-0.624,1.994,-0.528,-1.466,-0.714,-0.738,-0.664,-0.885,-1.101,-1.155,-0.339,0.408,0.254
0.952,-1.688,-2.312,-0.624,2,-0.531,-1.468,-0.714,-0.739,-0.667,-0.887,-1.103,-1.157,-0.34,0.401,0.252
0.953,-1.685,-2.311,-0.625,1.998,-0.529,-1.468,-0.716,-0.742,-0.668,-0.887,-1.103,-1.158,-0.339,0.406,0.253
0.954,-1.679,-2.311,-0.632,1.995,-0.523,-1.472,-0.717,-0.742,-0.667,-0.887,-1.102,-1.157,-0.338,0.401,0.253
0.955,-1.683,-2.315,-0.631,1.999,-0.525,-1.473,-0.718,-0.742,-0.667,-0.885,-1.103,-1.157,-0.338,0.398,0.252
0.956,-1.692,-2.32,-0.627,2.006,-0.532,-1.474,-0.716,-0.743,-0.667,-0.885,-1.103,-1.16,-0.34,0.402,0.253
0.957,-1.689,-2.317,-0.628,2.003,-0.53,-1.473,-0.716,-0.743,-0.669,-0.887,-1.107,-1.161,-0.339,0.401,0.254
0.958,-1.688,-2.318,-0.63,2.003,-0.529,-1.474,-0.719,-0.747,-0.672,-0.888,-1.111,-1.163,-0.338,0.393,0.254
0.959,-1.688,-2.318,-0.63,2.003,-0.528,-1.474,-0.717,-0.747,-0.672,-0.887,-1.109,-1.164,-0.339,0.387,0.254
0.96,-1.684,-2.314,-0.63,1.999,-0.526,-1.472,-0.719,-0.745,-0.671,-0.883,-1.109,-1.163,-0.336,0.389,0.253
0.961,-1.685,-2.317,-0.631,2.002,-0.526,-1.474,-0.72,-0.745,-0.671,-0.882,-1.112,-1.164,-0.337,0.391,0.253
0.962,-1.69,-2.317,-0.627,2.004,-0.53,-1.473,-0.719,-0.745,-0.67,-0.88,-1.112,-1.164,-0.336,0.395,0.254
0.963,-1.687,-2.312,-0.625,2,-0.53,-1.469,-0.72,-0.745,-0.671,-0.878,-1.11,-1.163,-0.333,0.396,0.254
0.964,-1.681,-2.309,-0.629,1.995,-0.525,-1.469,-0.718,-0.745,-0.669,-0.878,-1.106,-1.161,-0.331,0.393,0.254
0.965,-1.683,-2.31,-0.626,1.996,-0.528,-1.468,-0.719,-0.744,-0.666,-0.878,-1.107,-1.161,-0.332,0.394,0.254
0.966,-1.683,-2.308,-0.625,1.996,-0.528,-1.466,-0.717,-0.745,-0.666,-0.876,-1.108,-1.161,-0.331,0.399,0.253
0.967,-1.68,-2.308,-0.627,1.994,-0.526,-1.468,-0.719,-0.743,-0.667,-0.877,-1.107,-1.159,-0.33,0.401,0.252
0.968,-1.679,-2.308,-0.628,1.994,-0.525,-1.468,-0.721,-0.744,-0.667,-0.88,-1.107,-1.158,-0.329,0.4,0.251
0.969,-1.673,-2.304,-0.63,1.989,-0.521,-1.468,-0.718,-0.741,-0.665,-0.879,-1.104,-1.156,-0.327,0.404,0.251
0.97,-1.679,-2.306,-0.627,1.992,-0.525,-1.466,-0.718,-0.74,-0.662,-0.881,-1.103,-1.154,-0.327,0.402,0.253
0.971,-1.687,-2.309,-0.622,1.998,-0.532,-1.466,-0.716,-0.739,-0.662,-0.882,-1.101,-1.155,-0.329,0.403,0.253
0.972,-1.687,-2.311,-0.624,1.999,-0.531,-1.467,-0.716,-0.741,-0.665,-0.884,-1.101,-1.157,-0.331,0.394,0.252
0.973,-1.687,-2.312,-0.625,2,-0.53,-1.469,-0.716,-0.741,-0.665,-0.884,-1.103,-1.155,-0.331,0.387,0.252
0.974,-1.683,-2.311,-0.628,1.996,-0.527,-1.469,-0.716,-0.74,-0.665,-0.883,-1.101,-1.155,-0.329,0.396,0.252
0.975,-1.681,-2.311,-0.63,1.996,-0.525,-1.47,-0.717,-0.74,-0.665,-0.882,-1.101,-1.155,-0.328,0.4,0.252
0.976,-1.679,-2.309,-0.63,1.994,-0.523,-1.47,-0.717,-0.738,-0.664,-0.88,-1.099,-1.155,-0.33,0.402,0.252
0.977,-1.683,-2.312,-0.628,1.998,-0.527,-1.47,-0.718,-0.742,-0.668,-0.882,-1.101,-1.158,-0.332,0.396,0.25
0.978,-1.685,-2.314,-0.629,2,-0.527,-1.472,-0.718,-0.739,-0.665,-0.879,-1.099,-1.156,-0.33,0.392,0.249
0.979,-1.687,-2.318,-0.631,2.002,-0.527,-1.475,-0.718,-0.741,-0.666,-0.877,-1.099,-1.157,-0.331,0.393,0.251
0.98,-1.691,-2.322,-0.631,2.006,-0.529,-1.477,-0.718,-0.744,-0.67,-0.877,-1.103,-1.157,-0.333,0.395,0.25
0.981,-1.692,-2.325,-0.633,2.008,-0.528,-1.479,-0.718,-0.74,-0.668,-0.875,-1.103,-1.157,-0.334,0.39,0.251
0.982,-1.694,-2.325,-0.63,2.01,-0.531,-1.478,-0.716,-0.743,-0.669,-0.877,-1.105,-1.159,-0.333,0.385,0.252
0.983,-1.689,-2.321,-0.632,2.005,-0.528,-1.476,-0.718,-0.745,-0.669,-0.877,-1.105,-1.157,-0.33,0.384,0.252
0.984,-1.687,-2.319,-0.632,2.003,-0.526,-1.476,-0.717,-0.741,-0.668,-0.877,-1.105,-1.157,-0.332,0.388,0.252
0.985,-1.688,-2.318,-0.63,2.003,-0.529,-1.474,-0.717,-0.74,-0.669,-0.879,-1.105,-1.158,-0.331,0.39,0.253
0.986,-1.691,-2.321,-0.63,2.006,-0.53,-1.476,-0.718,-0.742,-0.67,-0.881,-1.107,-1.159,-0.332,0.391,0.253
0.987,-1.687,-2.318,-0.631,2.002,-0.527,-1.474,-0.719,-0.739,-0.67,-0.882,-1.107,-1.16,-0.332,0.398,0.253
0.988,-1.685,-2.313,-0.629,1.999,-0.527,-1.472,-0.722,-0.738,-0.67,-0.883,-1.109,-1.159,-0.33,0.397,0.254
0.989,-1.687,-2.311,-0.624,1.999,-0.531,-1.468,-0.719,-0.739,-0.668,-0.884,-1.11,-1.159,-0.33,0.392,0.253
0.99,-1.683,-2.309,-0.625,1.996,-0.528,-1.468,-0.719,-0.737,-0.668,-0.886,-1.107,-1.159,-0.329,0.395,0.254
0.991,-1.681,-2.31,-0.628,1.996,-0.526,-1.469,-0.719,-0.737,-0.668,-0.888,-1.106,-1.157,-0.328,0.404,0.253
0.992,-1.687,-2.312,-0.625,2,-0.53,-1.468,-0.718,-0.736,-0.668,-0.887,-1.109,-1.157,-0.328,0.406,0.253
0.993,-1.694,-2.316,-0.622,2.005,-0.535,-1.469,-0.718,-0.739,-0.67,-0.89,-1.109,-1.159,-0.328,0.401,0.255
0.994,-1.694,-2.315,-0.621,2.005,-0.536,-1.468,-0.718,-0.74,-0.671,-0.889,-1.11,-1.161,-0.327,0.404,0.255
0.995,-1.694,-2.314,-0.621,2.005,-0.536,-1.468,-0.717,-0.737,-0.672,-0.887,-1.109,-1.161,-0.327,0.399,0.256
0.996,-1.69,-2.314,-0.625,2.002,-0.531,-1.47,-0.719,-0.74,-0.671,-0.888,-1.107,-1.161,-0.328,0.393,0.257
0.997,-1.691,-2.317,-0.626,2.005,-0.532,-1.472,-0.719,-0.739,-0.671,-0.888,-1.108,-1.163,-0.327,0.401,0.256
0.998,-1.697,-2.321,-0.625,2.01,-0.535,-1.474,-0.717,-0.735,-0.669,-0.884,-1.107,-1.161,-0.327,0.405,0.256
0.999,-1.695,-2.324,-0.629,2.01,-0.532,-1.476,-0.718,-0.735,-0.668,-0.879,-1.107,-1.159,-0.327,0.395,0.256
1,-1.692,-2.326,-0.634,2.009,-0.528,-1.48,-0.716,-0.737,-0.67,-0.876,-1.109,-1.161,-0.326,0.384,0.256
1.001,-1.692,-2.325,-0.634,2.009,-0.528,-1.48,-0.717,-0.736,-0.67,-0.874,-1.107,-1.16,-0.327,0.396,0.255
1.002,-1.696,-2.326,-0.63,2.011,-0.532,-1.478,-0.718,-0.735,-0.67,-0.874,-1.107,-1.16,-0.327,0.406,0.254
1.003,-1.694,-2.326,-0.632,2.01,-0.53,-1.479,-0.717,-0.735,-0.669,-0.875,-1.107,-1.161,-0.328,0.402,0.253
1.004,-1.694,-2.325,-0.631,2.009,-0.53,-1.478,-0.716,-0.735,-0.668,-0.876,-1.107,-1.161,-0.329,0.398,0.253
1.005,-1.698,-2.329,-0.631,2.014,-0.532,-1.481,-0.716,-0.739,-0.672,-0.879,-1.109,-1.163,-0.332,0.392,0.253
1.006,-1.697,-2.332,-0.634,2.014,-0.531,-1.484,-0.714,-0.741,-0.671,-0.88,-1.107,-1.163,-0.333,0.394,0.253
1.007,-1.7,-2.334,-0.633,2.018,-0.533,-1.484,-0.714,-0.74,-0.672,-0.882,-1.107,-1.163,-0.333,0.392,0.253
1.008,-1.7,-2.334,-0.634,2.018,-0.532,-1.484,-0.715,-0.738,-0.67,-0.881,-1.105,-1.162,-0.332,0.392,0.253
1.009,-1.702,-2.334,-0.632,2.018,-0.534,-1.484,-0.714,-0.738,-0.671,-0.885,-1.107,-1.163,-0.334,0.398,0.253
1.01,-1.702,-2.341,-0.638,2.022,-0.532,-1.49,-0.71,-0.738,-0.671,-0.887,-1.104,-1.161,-0.335,0.39,0.253
1.011,-1.7,-2.344,-0.644,2.022,-0.527,-1.494,-0.71,-0.737,-0.668,-0.886,-1.103,-1.156,-0.333,0.388,0.253
1.012,-1.702,-2.342,-0.64,2.022,-0.53,-1.492,-0.711,-0.739,-0.673,-0.888,-1.106,-1.158,-0.335,0.391,0.253
1.013,-1.705,-2.343,-0.638,2.024,-0.533,-1.49,-0.709,-0.739,-0.673,-0.888,-1.105,-1.157,-0.335,0.392,0.254
1.014,-1.701,-2.34,-0.639,2.021,-0.53,-1.49,-0.711,-0.738,-0.672,-0.888,-1.107,-1.159,-0.334,0.394,0.253
1.015,-1.699,-2.335,-0.636,2.017,-0.531,-1.486,-0.713,-0.738,-0.672,-0.888,-1.105,-1.16,-0.335,0.391,0.253
1.016,-1.697,-2.333,-0.635,2.014,-0.53,-1.484,-0.711,-0.737,-0.671,-0.887,-1.104,-1.159,-0.335,0.384,0.251
1.017,-1.69,-2.332,-0.641,2.011,-0.524,-1.486,-0.713,-0.734,-0.67,-0.884,-1.105,-1.159,-0.334,0.382,0.251
1.018,-1.693,-2.333,-0.64,2.013,-0.525,-1.487,-0.712,-0.736,-0.67,-0.882,-1.106,-1.159,-0.335,0.389,0.25
1.019,-1.696,-2.336,-0.639,2.017,-0.528,-1.488,-0.711,-0.738,-0.673,-0.883,-1.107,-1.16,-0.335,0.392,0.251
1.02,-1.694,-2.336,-0.641,2.015,-0.526,-1.488,-0.713,-0.739,-0.672,-0.883,-1.107,-1.161,-0.335,0.387,0.251
1.021,-1.694,-2.333,-0.638,2.013,-0.527,-1.485,-0.71,-0.738,-0.67,-0.88,-1.106,-1.159,-0.334,0.385,0.251
1.022,-1.69,-2.325,-0.636,2.007,-0.526,-1.48,-0.709,-0.737,-0.668,-0.879,-1.104,-1.158,-0.333,0.388,0.251
1.023,-1.691,-2.326,-0.635,2.009,-0.527,-1.48,-0.71,-0.737,-0.668,-0.879,-1.107,-1.159,-0.333,0.389,0.248
1.024,-1.698,-2.33,-0.632,2.014,-0.532,-1.482,-0.708,-0.739,-0.669,-0.883,-1.109,-1.16,-0.334,0.386,0.251
1.025,-1.697,-2.329,-0.632,2.013,-0.532,-1.48,-0.709,-0.738,-0.667,-0.883,-1.107,-1.16,-0.334,0.392,0.25
1.026,-1.693,-2.327,-0.634,2.01,-0.529,-1.48,-0.708,-0.735,-0.663,-0.881,-1.107,-1.157,-0.333,0.399,0.247
1.027,-1.688,-2.324,-0.636,2.006,-0.525,-1.48,-0.707,-0.735,-0.663,-0.88,-1.107,-1.157,-0.332,0.398,0.246
1.028,-1.69,-2.325,-0.635,2.007,-0.527,-1.48,-0.708,-0.734,-0.665,-0.882,-1.107,-1.158,-0.332,0.39,0.247
1.029,-1.69,-2.324,-0.634,2.007,-0.527,-1.479,-0.706,-0.731,-0.662,-0.884,-1.107,-1.158,-0.333,0.394,0.247
1.03,-1.686,-2.321,-0.635,2.003,-0.525,-1.478,-0.707,-0.731,-0.662,-0.884,-1.107,-1.157,-0.331,0.404,0.247
1.031,-1.688,-2.322,-0.634,2.005,-0.526,-1.478,-0.707,-0.731,-0.662,-0.886,-1.108,-1.157,-0.33,0.404,0.248
1.032,-1.688,-2.32,-0.632,2.003,-0.527,-1.476,-0.708,-0.73,-0.662,-0.887,-1.106,-1.158,-0.332,0.403,0.247
1.033,-1.685,-2.317,-0.632,2.001,-0.525,-1.474,-0.709,-0.727,-0.659,-0.883,-1.103,-1.157,-0.332,0.399,0.247
1.034,-1.685,-2.317,-0.632,2.001,-0.526,-1.474,-0.706,-0.724,-0.656,-0.879,-1.103,-1.155,-0.331,0.399,0.245
1.035,-1.681,-2.308,-0.628,1.994,-0.526,-1.468,-0.711,-0.723,-0.656,-0.88,-1.103,-1.156,-0.331,0.399,0.245
1.036,-1.672,-2.303,-0.63,1.988,-0.52,-1.466,-0.716,-0.719,-0.653,-0.878,-1.101,-1.155,-0.329,0.406,0.245
1.037,-1.672,-2.3,-0.628,1.986,-0.521,-1.464,-0.715,-0.716,-0.649,-0.873,-1.094,-1.149,-0.325,0.408,0.242
1.038,-1.669,-2.294,-0.625,1.982,-0.521,-1.46,-0.713,-0.711,-0.646,-0.865,-1.089,-1.145,-0.323,0.409,0.238
1.039,-1.663,-2.29,-0.627,1.976,-0.517,-1.458,-0.71,-0.709,-0.643,-0.86,-1.087,-1.143,-0.323,0.423,0.234
1.04,-1.665,-2.285,-0.621,1.975,-0.521,-1.453,-0.707,-0.709,-0.643,-0.857,-1.087,-1.145,-0.323,0.424,0.234
1.041,-1.663,-2.28,-0.618,1.972,-0.522,-1.449,-0.704,-0.708,-0.645,-0.855,-1.087,-1.145,-0.322,0.426,0.233
1.042,-1.665,-2.281,-0.616,1.973,-0.524,-1.448,-0.698,-0.71,-0.644,-0.855,-1.087,-1.143,-0.324,0.431,0.228
1.043,-1.675,-2.286,-0.611,1.981,-0.531,-1.448,-0.694,-0.707,-0.643,-0.854,-1.085,-1.141,-0.325,0.425,0.228
1.044,-1.675,-2.285,-0.61,1.98,-0.532,-1.448,-0.695,-0.707,-0.642,-0.852,-1.085,-1.141,-0.322,0.423,0.227
1.045,-1.677,-2.281,-0.605,1.979,-0.535,-1.443,-0.695,-0.71,-0.642,-0.854,-1.085,-1.141,-0.32,0.433,0.226
1.046,-1.675,-2.277,-0.604,1.976,-0.535,-1.44,-0.694,-0.707,-0.642,-0.854,-1.084,-1.14,-0.319,0.445,0.227
1.047,-1.672,-2.276,-0.604,1.974,-0.534,-1.44,-0.691,-0.705,-0.639,-0.852,-1.083,-1.139,-0.318,0.446,0.225
1.048,-1.677,-2.276,-0.599,1.977,-0.539,-1.438,-0.686,-0.705,-0.639,-0.857,-1.083,-1.141,-0.32,0.445,0.225
1.049,-1.674,-2.273,-0.599,1.974,-0.537,-1.436,-0.684,-0.703,-0.638,-0.856,-1.081,-1.139,-0.32,0.452,0.223
1.05,-1.674,-2.274,-0.6,1.974,-0.536,-1.437,-0.681,-0.702,-0.637,-0.856,-1.081,-1.139,-0.32,0.45,0.221
1.051,-1.677,-2.275,-0.597,1.976,-0.54,-1.436,-0.677,-0.702,-0.637,-0.859,-1.084,-1.139,-0.322,0.453,0.22
1.052,-1.677,-2.268,-0.591,1.972,-0.542,-1.429,-0.671,-0.699,-0.634,-0.858,-1.083,-1.139,-0.323,0.465,0.213
1.053,-1.675,-2.267,-0.591,1.972,-0.542,-1.429,-0.663,-0.698,-0.635,-0.856,-1.083,-1.14,-0.326,0.459,0.209
1.054,-1.681,-2.271,-0.59,1.976,-0.545,-1.43,-0.661,-0.703,-0.638,-0.857,-1.087,-1.143,-0.329,0.451,0.208
1.055,-1.683,-2.271,-0.587,1.976,-0.547,-1.429,-0.665,-0.707,-0.639,-0.856,-1.087,-1.143,-0.33,0.453,0.208
1.056,-1.679,-2.268,-0.589,1.973,-0.544,-1.428,-0.67,-0.705,-0.637,-0.853,-1.086,-1.141,-0.328,0.454,0.211
1.057,-1.673,-2.263,-0.589,1.968,-0.542,-1.426,-0.676,-0.705,-0.637,-0.851,-1.086,-1.139,-0.327,0.455,0.213
1.058,-1.671,-2.262,-0.592,1.966,-0.539,-1.427,-0.682,-0.704,-0.637,-0.847,-1.084,-1.138,-0.324,0.458,0.214
1.059,-1.671,-2.263,-0.593,1.967,-0.538,-1.428,-0.694,-0.706,-0.639,-0.845,-1.087,-1.139,-0.323,0.452,0.22
1.06,-1.667,-2.261,-0.595,1.964,-0.535,-1.428,-0.706,-0.709,-0.641,-0.843,-1.087,-1.139,-0.322,0.45,0.223
1.061,-1.667,-2.26,-0.593,1.964,-0.536,-1.427,-0.714,-0.712,-0.643,-0.841,-1.086,-1.137,-0.319,0.465,0.226
1.062,-1.673,-2.26,-0.587,1.967,-0.543,-1.423,-0.722,-0.717,-0.644,-0.841,-1.083,-1.136,-0.321,0.461,0.229
1.063,-1.673,-2.261,-0.589,1.966,-0.541,-1.425,-0.73,-0.717,-0.646,-0.842,-1.083,-1.135,-0.32,0.451,0.231
1.064,-1.672,-2.264,-0.592,1.968,-0.539,-1.427,-0.735,-0.719,-0.649,-0.847,-1.088,-1.14,-0.322,0.449,0.234
1.065,-1.677,-2.267,-0.59,1.972,-0.543,-1.429,-0.74,-0.724,-0.652,-0.85,-1.087,-1.14,-0.324,0.446,0.236
1.066,-1.675,-2.26,-0.586,1.968,-0.544,-1.423,-0.75,-0.723,-0.65,-0.848,-1.085,-1.137,-0.322,0.459,0.239
1.067,-1.671,-2.255,-0.583,1.962,-0.543,-1.419,-0.768,-0.721,-0.646,-0.844,-1.081,-1.133,-0.318,0.476,0.24
1.068,-1.669,-2.248,-0.579,1.958,-0.544,-1.413,-0.78,-0.719,-0.643,-0.84,-1.077,-1.129,-0.315,0.481,0.241
1.069,-1.651,-2.233,-0.581,1.942,-0.534,-1.407,-0.79,-0.712,-0.637,-0.835,-1.071,-1.125,-0.307,0.481,0.241
1.07,-1.645,-2.224,-0.58,1.935,-0.532,-1.402,-0.802,-0.709,-0.632,-0.833,-1.067,-1.12,-0.302,0.483,0.239
1.071,-1.645,-2.221,-0.576,1.933,-0.534,-1.398,-0.798,-0.708,-0.63,-0.833,-1.062,-1.119,-0.3,0.486,0.236
1.072,-1.637,-2.216,-0.58,1.927,-0.528,-1.399,-0.798,-0.705,-0.625,-0.83,-1.058,-1.116,-0.292,0.484,0.233
1.073,-1.633,-2.211,-0.578,1.922,-0.527,-1.395,-0.801,-0.703,-0.624,-0.826,-1.054,-1.114,-0.287,0.487,0.232
1.074,-1.635,-2.212,-0.578,1.924,-0.528,-1.395,-0.799,-0.707,-0.626,-0.827,-1.053,-1.114,-0.286,0.484,0.234
1.075,-1.64,-2.219,-0.579,1.929,-0.53,-1.399,-0.802,-0.711,-0.627,-0.829,-1.054,-1.113,-0.286,0.48,0.236
1.076,-1.639,-2.217,-0.577,1.929,-0.531,-1.397,-0.8,-0.712,-0.626,-0.827,-1.053,-1.113,-0.286,0.494,0.234
1.077,-1.639,-2.212,-0.573,1.926,-0.533,-1.393,-0.798,-0.717,-0.627,-0.827,-1.052,-1.111,-0.286,0.502,0.233
1.078,-1.639,-2.209,-0.571,1.925,-0.534,-1.39,-0.797,-0.72,-0.627,-0.825,-1.05,-1.108,-0.285,0.501,0.233
1.079,-1.633,-2.206,-0.573,1.919,-0.53,-1.389,-0.798,-0.718,-0.626,-0.82,-1.049,-1.105,-0.284,0.497,0.232
1.08,-1.637,-2.208,-0.571,1.922,-0.532,-1.389,-0.797,-0.719,-0.625,-0.817,-1.046,-1.106,-0.284,0.497,0.231
1.081,-1.639,-2.209,-0.57,1.925,-0.534,-1.389,-0.791,-0.721,-0.626,-0.815,-1.048,-1.107,-0.286,0.502,0.229
1.082,-1.635,-2.208,-0.573,1.921,-0.53,-1.391,-0.79,-0.723,-0.629,-0.816,-1.05,-1.107,-0.288,0.5,0.227
1.083,-1.638,-2.211,-0.573,1.925,-0.532,-1.392,-0.79,-0.721,-0.626,-0.815,-1.05,-1.109,-0.288,0.499,0.226
1.084,-1.642,-2.214,-0.573,1.928,-0.534,-1.393,-0.785,-0.721,-0.626,-0.816,-1.05,-1.108,-0.29,0.497,0.225
1.085,-1.638,-2.215,-0.577,1.927,-0.53,-1.395,-0.783,-0.722,-0.628,-0.819,-1.05,-1.109,-0.289,0.491,0.223
1.086,-1.632,-2.215,-0.583,1.923,-0.524,-1.399,-0.784,-0.72,-0.626,-0.819,-1.052,-1.109,-0.284,0.481,0.222
1.087,-1.631,-2.22,-0.59,1.925,-0.519,-1.405,-0.778,-0.717,-0.625,-0.819,-1.053,-1.109,-0.285,0.474,0.221
1.088,-1.633,-2.226,-0.593,1.929,-0.519,-1.409,-0.774,-0.715,-0.625,-0.822,-1.054,-1.111,-0.287,0.479,0.22
1.089,-1.627,-2.221,-0.595,1.924,-0.516,-1.408,-0.775,-0.713,-0.624,-0.822,-1.057,-1.111,-0.286,0.489,0.218
1.09,-1.631,-2.221,-0.591,1.925,-0.519,-1.405,-0.77,-0.713,-0.622,-0.825,-1.058,-1.111,-0.288,0.493,0.218
1.091,-1.635,-2.223,-0.587,1.929,-0.524,-1.405,-0.771,-0.714,-0.624,-0.829,-1.058,-1.111,-0.289,0.486,0.221
1.092,-1.629,-2.219,-0.589,1.925,-0.519,-1.404,-0.775,-0.716,-0.625,-0.828,-1.06,-1.111,-0.288,0.483,0.223
1.093,-1.628,-2.221,-0.593,1.925,-0.517,-1.407,-0.776,-0.718,-0.625,-0.828,-1.059,-1.111,-0.287,0.474,0.226
1.094,-1.625,-2.223,-0.598,1.924,-0.513,-1.411,-0.776,-0.717,-0.626,-0.828,-1.058,-1.111,-0.285,0.466,0.227
1.095,-1.628,-2.228,-0.6,1.927,-0.513,-1.414,-0.773,-0.716,-0.626,-0.829,-1.059,-1.11,-0.285,0.463,0.229
1.096,-1.629,-2.237,-0.609,1.933,-0.509,-1.423,-0.769,-0.719,-0.627,-0.831,-1.06,-1.111,-0.286,0.454,0.234
1.097,-1.627,-2.237,-0.611,1.932,-0.508,-1.424,-0.77,-0.724,-0.631,-0.835,-1.062,-1.115,-0.286,0.458,0.239
1.098,-1.631,-2.238,-0.608,1.935,-0.511,-1.423,-0.767,-0.73,-0.638,-0.836,-1.065,-1.115,-0.29,0.46,0.242
1.099,-1.639,-2.243,-0.604,1.94,-0.517,-1.423,-0.765,-0.734,-0.642,-0.838,-1.066,-1.117,-0.293,0.46,0.242
1.1,-1.646,-2.247,-0.601,1.946,-0.522,-1.423,-0.762,-0.739,-0.647,-0.841,-1.069,-1.121,-0.297,0.459,0.245
1.101,-1.647,-2.254,-0.608,1.95,-0.518,-1.431,-0.758,-0.742,-0.65,-0.842,-1.071,-1.123,-0.299,0.445,0.246
1.102,-1.646,-2.262,-0.616,1.954,-0.514,-1.438,-0.755,-0.741,-0.651,-0.845,-1.073,-1.125,-0.3,0.446,0.246
1.103,-1.653,-2.276,-0.623,1.964,-0.514,-1.449,-0.749,-0.742,-0.654,-0.848,-1.078,-1.129,-0.302,0.44,0.248
1.104,-1.653,-2.288,-0.635,1.97,-0.508,-1.462,-0.747,-0.744,-0.657,-0.854,-1.081,-1.133,-0.303,0.425,0.253
1.105,-1.647,-2.293,-0.646,1.97,-0.5,-1.47,-0.746,-0.747,-0.66,-0.86,-1.087,-1.137,-0.304,0.411,0.256
1.106,-1.653,-2.3,-0.646,1.976,-0.503,-1.473,-0.743,-0.747,-0.659,-0.861,-1.089,-1.138,-0.307,0.406,0.258
1.107,-1.663,-2.305,-0.643,1.984,-0.509,-1.474,-0.742,-0.748,-0.662,-0.865,-1.09,-1.139,-0.309,0.409,0.261
1.108,-1.663,-2.308,-0.644,1.986,-0.508,-1.476,-0.741,-0.748,-0.664,-0.868,-1.092,-1.141,-0.311,0.401,0.262
1.109,-1.659,-2.308,-0.647,1.984,-0.505,-1.478,-0.741,-0.746,-0.665,-0.87,-1.093,-1.142,-0.312,0.4,0.263
1.11,-1.661,-2.307,-0.646,1.984,-0.506,-1.476,-0.739,-0.746,-0.664,-0.873,-1.093,-1.143,-0.314,0.394,0.263
1.111,-1.661,-2.304,-0.642,1.983,-0.509,-1.474,-0.738,-0.743,-0.661,-0.873,-1.091,-1.143,-0.316,0.395,0.261
1.112,-1.669,-2.306,-0.637,1.988,-0.515,-1.472,-0.734,-0.739,-0.66,-0.872,-1.091,-1.143,-0.318,0.401,0.26
1.113,-1.673,-2.311,-0.637,1.992,-0.517,-1.474,-0.729,-0.736,-0.658,-0.87,-1.091,-1.143,-0.318,0.399,0.258
1.114,-1.681,-2.312,-0.632,1.996,-0.524,-1.472,-0.725,-0.736,-0.657,-0.869,-1.093,-1.145,-0.321,0.398,0.258
1.115,-1.698,-2.319,-0.622,2.009,-0.537,-1.47,-0.72,-0.739,-0.662,-0.872,-1.095,-1.149,-0.326,0.388,0.257
1.116,-1.695,-2.322,-0.627,2.009,-0.533,-1.475,-0.718,-0.74,-0.663,-0.873,-1.096,-1.149,-0.325,0.388,0.258
1.117,-1.689,-2.322,-0.633,2.006,-0.527,-1.478,-0.719,-0.738,-0.663,-0.873,-1.099,-1.151,-0.325,0.389,0.257
1.118,-1.688,-2.325,-0.638,2.006,-0.524,-1.482,-0.721,-0.74,-0.666,-0.873,-1.099,-1.154,-0.327,0.386,0.254
1.119,-1.685,-2.326,-0.641,2.006,-0.521,-1.484,-0.723,-0.742,-0.667,-0.871,-1.101,-1.155,-0.326,0.388,0.255
1.12,-1.686,-2.327,-0.641,2.006,-0.522,-1.484,-0.72,-0.742,-0.669,-0.871,-1.105,-1.157,-0.329,0.383,0.255
1.121,-1.694,-2.335,-0.641,2.014,-0.525,-1.488,-0.719,-0.747,-0.674,-0.875,-1.109,-1.159,-0.33,0.37,0.259
1.122,-1.698,-2.341,-0.643,2.02,-0.527,-1.492,-0.723,-0.752,-0.679,-0.88,-1.109,-1.161,-0.332,0.363,0.26
1.123,-1.698,-2.345,-0.646,2.021,-0.525,-1.495,-0.722,-0.75,-0.677,-0.88,-1.11,-1.161,-0.333,0.374,0.257
1.124,-1.698,-2.345,-0.648,2.022,-0.524,-1.496,-0.72,-0.75,-0.68,-0.883,-1.112,-1.163,-0.333,0.383,0.256
1.125,-1.692,-2.344,-0.652,2.018,-0.519,-1.498,-0.724,-0.752,-0.68,-0.884,-1.111,-1.163,-0.332,0.379,0.257
1.126,-1.698,-2.349,-0.65,2.023,-0.523,-1.5,-0.723,-0.75,-0.678,-0.885,-1.113,-1.163,-0.333,0.372,0.258
