'Elapsed time','i','ii','iii','avr','avl','avf','v1','v2','v3','v4','v5','v6','vx','vy','vz'
'hh:mm:ss.mmm','mV','mV','mV','mV','mV','mV','mV','mV','mV','mV','mV','mV','mV','mV','mV'
0,-0.027,-2.888,-2.861,1.458,1.417,-2.874,0.573,0.483,0.244,-0.713,-2.005,-1.565,0.251,-1.373,0.811
0.001,-0.03,-2.892,-2.862,1.461,1.416,-2.877,0.575,0.486,0.245,-0.712,-2.003,-1.566,0.249,-1.375,0.807
0.002,-0.028,-2.89,-2.864,1.459,1.418,-2.877,0.577,0.485,0.245,-0.711,-2.003,-1.565,0.251,-1.377,0.806
0.003,-0.026,-2.887,-2.861,1.457,1.417,-2.873,0.575,0.486,0.247,-0.711,-2.002,-1.562,0.253,-1.374,0.806
0.004,-0.026,-2.888,-2.862,1.457,1.418,-2.874,0.575,0.486,0.247,-0.711,-2.002,-1.562,0.253,-1.375,0.806
0.005,-0.026,-2.888,-2.861,1.457,1.417,-2.874,0.575,0.487,0.245,-0.71,-2,-1.56,0.252,-1.377,0.807
0.006,-0.028,-2.89,-2.862,1.459,1.417,-2.876,0.577,0.486,0.244,-0.709,-1.999,-1.562,0.251,-1.379,0.807
0.007,-0.03,-2.892,-2.862,1.46,1.416,-2.877,0.576,0.487,0.242,-0.709,-2,-1.562,0.251,-1.379,0.807
0.008,-0.03,-2.89,-2.861,1.46,1.415,-2.876,0.577,0.487,0.244,-0.709,-1.998,-1.56,0.251,-1.379,0.807
0.009,-0.029,-2.893,-2.865,1.462,1.417,-2.878,0.579,0.486,0.245,-0.708,-1.998,-1.56,0.251,-1.381,0.806
0.01,-0.03,-2.893,-2.864,1.462,1.417,-2.878,0.578,0.486,0.243,-0.708,-2,-1.56,0.251,-1.379,0.807
0.011,-0.031,-2.89,-2.86,1.46,1.415,-2.874,0.579,0.486,0.241,-0.709,-2,-1.56,0.252,-1.378,0.807
0.012,-0.034,-2.893,-2.86,1.464,1.413,-2.876,0.577,0.489,0.241,-0.707,-1.998,-1.558,0.252,-1.379,0.807
0.013,-0.031,-2.893,-2.863,1.462,1.416,-2.878,0.577,0.487,0.243,-0.707,-1.996,-1.558,0.251,-1.381,0.81
0.014,-0.029,-2.891,-2.862,1.46,1.417,-2.877,0.577,0.488,0.243,-0.709,-1.998,-1.56,0.251,-1.381,0.81
0.015,-0.029,-2.89,-2.862,1.46,1.417,-2.876,0.577,0.489,0.246,-0.709,-2,-1.56,0.251,-1.379,0.809
0.016,-0.026,-2.889,-2.863,1.458,1.418,-2.875,0.576,0.486,0.247,-0.711,-1.998,-1.561,0.251,-1.378,0.81
0.017,-0.028,-2.89,-2.862,1.459,1.417,-2.876,0.575,0.487,0.245,-0.709,-1.998,-1.562,0.252,-1.378,0.81
0.018,-0.029,-2.889,-2.86,1.46,1.415,-2.874,0.577,0.486,0.245,-0.708,-1.997,-1.56,0.251,-1.377,0.809
0.019,-0.03,-2.885,-2.856,1.458,1.413,-2.87,0.576,0.487,0.244,-0.709,-1.998,-1.562,0.252,-1.375,0.809
0.02,-0.03,-2.887,-2.858,1.458,1.414,-2.872,0.577,0.487,0.243,-0.709,-1.998,-1.56,0.252,-1.377,0.809
0.021,-0.031,-2.891,-2.861,1.461,1.415,-2.876,0.578,0.487,0.245,-0.708,-1.996,-1.56,0.252,-1.379,0.809
0.022,-0.031,-2.89,-2.86,1.461,1.415,-2.875,0.578,0.488,0.246,-0.708,-1.998,-1.562,0.252,-1.379,0.807
0.023,-0.03,-2.888,-2.858,1.46,1.414,-2.873,0.577,0.487,0.247,-0.709,-1.998,-1.561,0.253,-1.378,0.806
0.024,-0.031,-2.89,-2.86,1.46,1.414,-2.874,0.577,0.488,0.249,-0.709,-1.995,-1.557,0.256,-1.377,0.807
0.025,-0.03,-2.889,-2.86,1.46,1.415,-2.874,0.58,0.489,0.248,-0.705,-1.993,-1.556,0.254,-1.377,0.808
0.026,-0.03,-2.889,-2.86,1.46,1.415,-2.874,0.58,0.491,0.248,-0.704,-1.994,-1.556,0.254,-1.379,0.806
0.027,-0.029,-2.89,-2.862,1.459,1.417,-2.876,0.581,0.493,0.248,-0.704,-1.992,-1.554,0.255,-1.377,0.807
0.028,-0.027,-2.889,-2.863,1.458,1.418,-2.876,0.583,0.493,0.247,-0.703,-1.992,-1.558,0.255,-1.377,0.808
0.029,-0.027,-2.89,-2.864,1.458,1.419,-2.877,0.586,0.496,0.248,-0.703,-1.992,-1.554,0.256,-1.378,0.805
0.03,-0.025,-2.886,-2.863,1.456,1.419,-2.874,0.59,0.5,0.252,-0.7,-1.987,-1.552,0.26,-1.376,0.804
0.031,-0.019,-2.88,-2.861,1.45,1.421,-2.87,0.592,0.504,0.257,-0.695,-1.984,-1.55,0.261,-1.374,0.801
0.032,-0.018,-2.876,-2.858,1.447,1.42,-2.866,0.595,0.508,0.259,-0.691,-1.982,-1.547,0.261,-1.371,0.798
0.033,-0.015,-2.872,-2.857,1.443,1.421,-2.864,0.596,0.51,0.26,-0.689,-1.981,-1.546,0.262,-1.371,0.793
0.034,-0.011,-2.865,-2.855,1.438,1.421,-2.86,0.596,0.511,0.262,-0.687,-1.98,-1.545,0.265,-1.369,0.789
0.035,-0.009,-2.861,-2.853,1.435,1.422,-2.856,0.596,0.513,0.264,-0.689,-1.981,-1.546,0.266,-1.365,0.789
0.036,-0.006,-2.861,-2.854,1.433,1.424,-2.857,0.596,0.516,0.266,-0.688,-1.98,-1.546,0.267,-1.365,0.79
0.037,-0.005,-2.858,-2.853,1.432,1.424,-2.856,0.596,0.517,0.268,-0.686,-1.978,-1.544,0.269,-1.365,0.789
0.038,-0.004,-2.854,-2.85,1.429,1.423,-2.852,0.599,0.52,0.272,-0.683,-1.976,-1.543,0.271,-1.363,0.787
0.039,-0.004,-2.848,-2.845,1.425,1.421,-2.846,0.602,0.524,0.274,-0.68,-1.974,-1.542,0.272,-1.357,0.785
0.04,-0.002,-2.846,-2.845,1.423,1.421,-2.845,0.603,0.528,0.277,-0.678,-1.97,-1.54,0.273,-1.357,0.78
0.041,0.001,-2.846,-2.848,1.423,1.424,-2.846,0.602,0.53,0.281,-0.678,-1.97,-1.537,0.275,-1.357,0.779
0.042,0.004,-2.841,-2.845,1.419,1.424,-2.841,0.6,0.529,0.283,-0.677,-1.97,-1.536,0.278,-1.353,0.778
0.043,0.007,-2.836,-2.844,1.414,1.425,-2.839,0.602,0.53,0.285,-0.675,-1.966,-1.534,0.281,-1.351,0.777
0.044,0.012,-2.83,-2.842,1.409,1.427,-2.836,0.603,0.534,0.288,-0.671,-1.964,-1.532,0.282,-1.348,0.774
0.045,0.013,-2.821,-2.835,1.405,1.424,-2.828,0.609,0.54,0.292,-0.664,-1.958,-1.528,0.285,-1.344,0.769
0.046,0.011,-2.815,-2.826,1.401,1.419,-2.82,0.614,0.545,0.297,-0.659,-1.954,-1.523,0.287,-1.339,0.761
0.047,0.009,-2.807,-2.816,1.399,1.412,-2.811,0.62,0.548,0.299,-0.657,-1.953,-1.523,0.283,-1.334,0.751
0.048,0.009,-2.799,-2.808,1.395,1.409,-2.803,0.625,0.55,0.301,-0.654,-1.951,-1.522,0.282,-1.332,0.743
0.049,0.013,-2.792,-2.805,1.389,1.409,-2.798,0.627,0.553,0.306,-0.652,-1.95,-1.518,0.283,-1.333,0.738
0.05,0.013,-2.787,-2.8,1.387,1.406,-2.792,0.63,0.556,0.308,-0.65,-1.946,-1.516,0.283,-1.333,0.734
0.051,0.015,-2.779,-2.795,1.382,1.405,-2.786,0.632,0.557,0.308,-0.647,-1.945,-1.514,0.284,-1.332,0.731
0.052,0.015,-2.777,-2.792,1.381,1.403,-2.784,0.634,0.558,0.308,-0.645,-1.944,-1.512,0.284,-1.335,0.726
0.053,0.013,-2.777,-2.791,1.382,1.402,-2.784,0.635,0.558,0.308,-0.645,-1.942,-1.511,0.285,-1.338,0.725
0.054,0.011,-2.775,-2.787,1.382,1.399,-2.78,0.635,0.556,0.309,-0.647,-1.944,-1.513,0.283,-1.338,0.723
0.055,0.004,-2.778,-2.783,1.387,1.394,-2.78,0.636,0.553,0.305,-0.653,-1.948,-1.518,0.28,-1.339,0.721
0.056,0.002,-2.781,-2.784,1.39,1.393,-2.783,0.634,0.548,0.3,-0.658,-1.952,-1.52,0.278,-1.339,0.725
0.057,0.002,-2.784,-2.787,1.391,1.395,-2.785,0.629,0.541,0.296,-0.661,-1.954,-1.522,0.276,-1.341,0.73
0.058,0.003,-2.78,-2.784,1.389,1.393,-2.782,0.625,0.537,0.292,-0.662,-1.954,-1.521,0.276,-1.342,0.732
0.059,0.001,-2.778,-2.78,1.389,1.39,-2.779,0.621,0.533,0.288,-0.663,-1.954,-1.52,0.274,-1.343,0.732
0.06,0,-2.777,-2.778,1.389,1.389,-2.777,0.616,0.528,0.285,-0.665,-1.955,-1.52,0.271,-1.345,0.733
0.061,0.003,-2.772,-2.776,1.385,1.389,-2.773,0.617,0.528,0.287,-0.664,-1.952,-1.518,0.272,-1.347,0.731
0.062,0.004,-2.768,-2.772,1.382,1.389,-2.771,0.618,0.531,0.291,-0.662,-1.95,-1.516,0.276,-1.345,0.728
0.063,0.007,-2.767,-2.775,1.38,1.391,-2.771,0.619,0.534,0.293,-0.66,-1.948,-1.512,0.28,-1.345,0.726
0.064,0.011,-2.767,-2.779,1.378,1.395,-2.773,0.62,0.538,0.296,-0.655,-1.944,-1.508,0.282,-1.351,0.724
0.065,0.011,-2.767,-2.778,1.378,1.395,-2.772,0.623,0.543,0.298,-0.65,-1.94,-1.506,0.284,-1.352,0.722
0.066,0.013,-2.767,-2.78,1.377,1.396,-2.773,0.625,0.549,0.304,-0.644,-1.935,-1.502,0.289,-1.355,0.719
0.067,0.017,-2.763,-2.78,1.373,1.399,-2.772,0.625,0.555,0.31,-0.639,-1.931,-1.498,0.294,-1.357,0.715
0.068,0.02,-2.759,-2.779,1.369,1.399,-2.768,0.625,0.559,0.315,-0.634,-1.928,-1.496,0.297,-1.357,0.711
0.069,0.023,-2.756,-2.779,1.367,1.401,-2.768,0.628,0.567,0.32,-0.628,-1.923,-1.492,0.302,-1.355,0.707
0.07,0.027,-2.752,-2.78,1.363,1.403,-2.767,0.631,0.576,0.328,-0.624,-1.918,-1.488,0.307,-1.353,0.706
0.071,0.03,-2.748,-2.778,1.359,1.404,-2.763,0.635,0.58,0.332,-0.621,-1.917,-1.487,0.31,-1.348,0.702
0.072,0.031,-2.744,-2.775,1.356,1.403,-2.759,0.637,0.583,0.332,-0.617,-1.913,-1.484,0.31,-1.346,0.698
0.073,0.032,-2.742,-2.774,1.355,1.403,-2.758,0.637,0.584,0.335,-0.618,-1.912,-1.485,0.309,-1.346,0.697
0.074,0.033,-2.737,-2.771,1.353,1.401,-2.754,0.638,0.582,0.337,-0.616,-1.911,-1.483,0.31,-1.344,0.692
0.075,0.03,-2.729,-2.76,1.349,1.395,-2.744,0.637,0.578,0.334,-0.621,-1.914,-1.484,0.307,-1.339,0.689
0.076,0.025,-2.727,-2.753,1.351,1.389,-2.74,0.635,0.571,0.329,-0.627,-1.919,-1.488,0.301,-1.334,0.691
0.077,0.021,-2.729,-2.751,1.355,1.385,-2.74,0.633,0.566,0.324,-0.626,-1.92,-1.488,0.298,-1.333,0.691
0.078,0.018,-2.728,-2.748,1.355,1.383,-2.738,0.629,0.562,0.321,-0.628,-1.919,-1.487,0.298,-1.331,0.692
0.079,0.018,-2.728,-2.747,1.355,1.383,-2.737,0.629,0.561,0.321,-0.628,-1.919,-1.484,0.3,-1.333,0.692
0.08,0.021,-2.728,-2.749,1.353,1.385,-2.739,0.625,0.561,0.322,-0.628,-1.918,-1.484,0.301,-1.332,0.694
0.081,0.027,-2.722,-2.749,1.347,1.388,-2.736,0.614,0.555,0.321,-0.628,-1.917,-1.482,0.302,-1.33,0.695
0.082,0.029,-2.716,-2.747,1.343,1.388,-2.731,0.604,0.55,0.32,-0.628,-1.914,-1.48,0.304,-1.329,0.695
0.083,0.032,-2.716,-2.748,1.343,1.39,-2.732,0.594,0.548,0.321,-0.627,-1.914,-1.48,0.306,-1.327,0.697
0.084,0.033,-2.716,-2.748,1.341,1.39,-2.732,0.589,0.549,0.32,-0.623,-1.911,-1.476,0.31,-1.327,0.7
0.085,0.035,-2.719,-2.754,1.343,1.395,-2.736,0.585,0.548,0.319,-0.623,-1.907,-1.474,0.312,-1.329,0.703
0.086,0.034,-2.725,-2.76,1.346,1.397,-2.743,0.581,0.547,0.318,-0.62,-1.905,-1.472,0.315,-1.334,0.707
0.087,0.031,-2.729,-2.76,1.349,1.395,-2.744,0.577,0.541,0.315,-0.62,-1.905,-1.472,0.316,-1.338,0.714
0.088,0.033,-2.736,-2.768,1.351,1.4,-2.752,0.566,0.531,0.31,-0.622,-1.905,-1.47,0.319,-1.345,0.719
0.089,0.037,-2.74,-2.777,1.351,1.407,-2.759,0.56,0.532,0.311,-0.617,-1.9,-1.466,0.326,-1.35,0.723
0.09,0.042,-2.737,-2.779,1.347,1.411,-2.758,0.56,0.536,0.316,-0.613,-1.896,-1.463,0.331,-1.349,0.722
0.091,0.046,-2.74,-2.787,1.347,1.417,-2.764,0.559,0.54,0.319,-0.609,-1.895,-1.462,0.338,-1.346,0.726
0.092,0.049,-2.752,-2.801,1.351,1.425,-2.776,0.558,0.54,0.319,-0.607,-1.892,-1.46,0.34,-1.353,0.735
0.093,0.051,-2.756,-2.807,1.353,1.429,-2.781,0.553,0.536,0.315,-0.608,-1.893,-1.461,0.339,-1.356,0.74
0.094,0.052,-2.76,-2.813,1.353,1.433,-2.786,0.549,0.534,0.314,-0.611,-1.894,-1.462,0.341,-1.359,0.744
0.095,0.051,-2.764,-2.815,1.357,1.433,-2.789,0.544,0.529,0.312,-0.616,-1.896,-1.462,0.341,-1.363,0.744
0.096,0.047,-2.768,-2.816,1.361,1.431,-2.792,0.541,0.523,0.305,-0.623,-1.901,-1.466,0.338,-1.362,0.749
0.097,0.045,-2.775,-2.821,1.365,1.433,-2.797,0.541,0.521,0.301,-0.625,-1.903,-1.468,0.336,-1.365,0.754
0.098,0.044,-2.781,-2.825,1.369,1.435,-2.803,0.543,0.517,0.296,-0.631,-1.907,-1.469,0.336,-1.366,0.76
0.099,0.043,-2.789,-2.833,1.373,1.438,-2.811,0.541,0.514,0.292,-0.635,-1.911,-1.474,0.334,-1.367,0.767
0.1,0.04,-2.799,-2.838,1.379,1.439,-2.818,0.541,0.515,0.291,-0.637,-1.911,-1.472,0.333,-1.373,0.771
0.101,0.036,-2.806,-2.842,1.385,1.44,-2.824,0.545,0.514,0.289,-0.641,-1.913,-1.472,0.332,-1.375,0.772
0.102,0.036,-2.809,-2.846,1.387,1.441,-2.828,0.546,0.511,0.289,-0.644,-1.915,-1.474,0.329,-1.374,0.77
0.103,0.036,-2.812,-2.85,1.388,1.444,-2.83,0.546,0.508,0.286,-0.648,-1.918,-1.476,0.329,-1.375,0.774
0.104,0.041,-2.817,-2.857,1.388,1.449,-2.837,0.548,0.508,0.285,-0.648,-1.917,-1.474,0.33,-1.377,0.776
0.105,0.041,-2.82,-2.861,1.389,1.451,-2.841,0.548,0.509,0.284,-0.645,-1.914,-1.472,0.33,-1.38,0.777
0.106,0.038,-2.825,-2.864,1.393,1.452,-2.844,0.55,0.51,0.283,-0.644,-1.915,-1.475,0.328,-1.38,0.781
0.107,0.035,-2.829,-2.865,1.397,1.45,-2.847,0.552,0.51,0.282,-0.647,-1.917,-1.476,0.327,-1.379,0.779
0.108,0.029,-2.834,-2.865,1.403,1.447,-2.849,0.55,0.504,0.28,-0.65,-1.919,-1.479,0.324,-1.382,0.777
0.109,0.028,-2.841,-2.869,1.407,1.448,-2.854,0.55,0.502,0.277,-0.651,-1.92,-1.48,0.323,-1.385,0.782
0.11,0.028,-2.841,-2.869,1.406,1.448,-2.854,0.548,0.501,0.273,-0.656,-1.923,-1.482,0.322,-1.383,0.787
0.111,0.025,-2.837,-2.862,1.406,1.444,-2.849,0.55,0.497,0.27,-0.657,-1.925,-1.482,0.32,-1.381,0.786
0.112,0.021,-2.838,-2.86,1.409,1.44,-2.849,0.554,0.499,0.269,-0.655,-1.925,-1.482,0.318,-1.381,0.785
0.113,0.012,-2.841,-2.853,1.415,1.433,-2.846,0.556,0.498,0.268,-0.658,-1.927,-1.486,0.313,-1.379,0.785
0.114,0.005,-2.841,-2.846,1.418,1.426,-2.844,0.56,0.498,0.27,-0.659,-1.929,-1.488,0.309,-1.375,0.783
0.115,0.003,-2.836,-2.84,1.416,1.421,-2.837,0.561,0.5,0.272,-0.66,-1.93,-1.49,0.305,-1.369,0.779
0.116,-0.003,-2.832,-2.829,1.417,1.413,-2.83,0.564,0.499,0.272,-0.662,-1.933,-1.494,0.3,-1.363,0.773
0.117,-0.004,-2.837,-2.834,1.421,1.415,-2.836,0.564,0.494,0.267,-0.666,-1.935,-1.497,0.297,-1.363,0.777
0.118,-0.005,-2.845,-2.84,1.425,1.417,-2.841,0.559,0.484,0.257,-0.673,-1.942,-1.501,0.294,-1.365,0.785
0.119,-0.01,-2.849,-2.839,1.429,1.415,-2.844,0.557,0.477,0.249,-0.682,-1.95,-1.506,0.289,-1.367,0.791
0.12,-0.014,-2.854,-2.841,1.434,1.413,-2.846,0.556,0.475,0.246,-0.687,-1.954,-1.51,0.285,-1.368,0.795
0.121,-0.017,-2.858,-2.841,1.437,1.413,-2.849,0.557,0.474,0.245,-0.687,-1.955,-1.512,0.282,-1.367,0.796
0.122,-0.019,-2.861,-2.843,1.44,1.412,-2.852,0.559,0.474,0.246,-0.69,-1.958,-1.517,0.279,-1.367,0.796
0.123,-0.025,-2.868,-2.844,1.446,1.41,-2.855,0.563,0.476,0.245,-0.693,-1.962,-1.522,0.275,-1.367,0.797
0.124,-0.027,-2.876,-2.849,1.451,1.411,-2.861,0.565,0.476,0.243,-0.695,-1.966,-1.528,0.27,-1.368,0.8
0.125,-0.029,-2.883,-2.854,1.456,1.413,-2.869,0.568,0.476,0.24,-0.697,-1.969,-1.53,0.266,-1.373,0.805
0.126,-0.03,-2.886,-2.857,1.458,1.413,-2.87,0.568,0.474,0.236,-0.699,-1.974,-1.53,0.265,-1.375,0.809
0.127,-0.031,-2.889,-2.858,1.46,1.413,-2.873,0.566,0.472,0.233,-0.701,-1.976,-1.532,0.264,-1.378,0.811
0.128,-0.03,-2.891,-2.861,1.46,1.415,-2.876,0.565,0.471,0.233,-0.705,-1.976,-1.534,0.264,-1.381,0.811
0.129,-0.03,-2.894,-2.865,1.462,1.417,-2.879,0.562,0.47,0.231,-0.707,-1.978,-1.534,0.262,-1.383,0.812
0.13,-0.03,-2.893,-2.864,1.462,1.417,-2.878,0.563,0.471,0.229,-0.707,-1.978,-1.535,0.262,-1.385,0.815
0.131,-0.03,-2.892,-2.862,1.461,1.416,-2.877,0.561,0.468,0.228,-0.709,-1.98,-1.534,0.263,-1.385,0.818
0.132,-0.03,-2.897,-2.868,1.464,1.419,-2.882,0.558,0.467,0.224,-0.71,-1.98,-1.535,0.262,-1.389,0.821
0.133,-0.03,-2.898,-2.869,1.464,1.419,-2.883,0.558,0.465,0.223,-0.71,-1.98,-1.534,0.263,-1.391,0.822
0.134,-0.03,-2.898,-2.869,1.464,1.419,-2.883,0.556,0.464,0.224,-0.711,-1.979,-1.534,0.263,-1.391,0.824
0.135,-0.03,-2.897,-2.868,1.464,1.419,-2.882,0.555,0.463,0.224,-0.714,-1.98,-1.536,0.262,-1.389,0.822
0.136,-0.03,-2.896,-2.865,1.463,1.417,-2.88,0.554,0.463,0.223,-0.715,-1.982,-1.536,0.262,-1.387,0.821
0.137,-0.032,-2.897,-2.866,1.464,1.417,-2.881,0.555,0.463,0.225,-0.713,-1.98,-1.534,0.264,-1.387,0.823
0.138,-0.03,-2.895,-2.865,1.462,1.418,-2.88,0.554,0.461,0.223,-0.715,-1.98,-1.536,0.262,-1.385,0.822
0.139,-0.029,-2.892,-2.863,1.46,1.417,-2.877,0.554,0.461,0.223,-0.714,-1.982,-1.537,0.26,-1.385,0.824
0.14,-0.032,-2.896,-2.865,1.464,1.417,-2.88,0.553,0.462,0.224,-0.715,-1.982,-1.536,0.26,-1.387,0.824
0.141,-0.03,-2.9,-2.869,1.465,1.419,-2.884,0.553,0.461,0.223,-0.719,-1.983,-1.536,0.26,-1.389,0.823
0.142,-0.032,-2.898,-2.868,1.465,1.418,-2.882,0.553,0.461,0.224,-0.719,-1.984,-1.539,0.258,-1.386,0.822
0.143,-0.033,-2.898,-2.865,1.466,1.416,-2.881,0.552,0.461,0.222,-0.719,-1.983,-1.54,0.258,-1.385,0.82
0.144,-0.03,-2.899,-2.869,1.464,1.419,-2.884,0.553,0.46,0.22,-0.72,-1.985,-1.539,0.257,-1.385,0.822
0.145,-0.03,-2.898,-2.869,1.464,1.419,-2.882,0.555,0.46,0.221,-0.717,-1.984,-1.537,0.259,-1.385,0.828
0.146,-0.03,-2.898,-2.869,1.464,1.419,-2.883,0.555,0.461,0.221,-0.716,-1.982,-1.535,0.259,-1.385,0.829
0.147,-0.033,-2.901,-2.869,1.466,1.418,-2.884,0.555,0.461,0.222,-0.717,-1.982,-1.538,0.257,-1.385,0.827
0.148,-0.035,-2.903,-2.868,1.47,1.416,-2.885,0.556,0.463,0.223,-0.718,-1.984,-1.54,0.255,-1.385,0.826
0.149,-0.037,-2.908,-2.872,1.472,1.417,-2.889,0.557,0.462,0.222,-0.718,-1.983,-1.538,0.254,-1.387,0.826
0.15,-0.039,-2.907,-2.869,1.473,1.415,-2.887,0.558,0.46,0.223,-0.718,-1.984,-1.538,0.253,-1.386,0.825
0.151,-0.038,-2.904,-2.865,1.471,1.413,-2.884,0.556,0.459,0.22,-0.719,-1.986,-1.541,0.252,-1.385,0.826
0.152,-0.038,-2.908,-2.87,1.472,1.416,-2.888,0.557,0.459,0.218,-0.718,-1.984,-1.54,0.253,-1.385,0.83
0.153,-0.041,-2.909,-2.869,1.475,1.414,-2.888,0.558,0.461,0.221,-0.718,-1.982,-1.537,0.253,-1.387,0.831
0.154,-0.041,-2.909,-2.869,1.474,1.413,-2.888,0.555,0.458,0.217,-0.72,-1.986,-1.54,0.252,-1.387,0.831
0.155,-0.041,-2.909,-2.869,1.474,1.414,-2.888,0.555,0.457,0.217,-0.723,-1.987,-1.542,0.252,-1.386,0.829
0.156,-0.042,-2.909,-2.868,1.475,1.413,-2.888,0.555,0.458,0.217,-0.724,-1.988,-1.541,0.252,-1.385,0.827
0.157,-0.041,-2.909,-2.869,1.474,1.414,-2.888,0.554,0.459,0.216,-0.721,-1.987,-1.541,0.251,-1.386,0.827
0.158,-0.041,-2.904,-2.864,1.472,1.412,-2.883,0.556,0.46,0.218,-0.722,-1.986,-1.542,0.249,-1.385,0.826
0.159,-0.041,-2.902,-2.862,1.472,1.411,-2.881,0.555,0.459,0.216,-0.722,-1.986,-1.542,0.251,-1.384,0.827
0.16,-0.041,-2.905,-2.864,1.472,1.411,-2.884,0.556,0.459,0.218,-0.72,-1.985,-1.54,0.252,-1.387,0.828
0.161,-0.04,-2.906,-2.866,1.472,1.413,-2.885,0.555,0.459,0.217,-0.721,-1.985,-1.541,0.249,-1.389,0.827
0.162,-0.041,-2.904,-2.864,1.472,1.411,-2.883,0.554,0.459,0.216,-0.722,-1.985,-1.542,0.249,-1.386,0.825
0.163,-0.041,-2.901,-2.861,1.471,1.411,-2.881,0.556,0.459,0.218,-0.722,-1.986,-1.541,0.249,-1.385,0.825
0.164,-0.04,-2.905,-2.865,1.472,1.413,-2.884,0.557,0.461,0.217,-0.721,-1.985,-1.54,0.249,-1.387,0.826
0.165,-0.042,-2.905,-2.865,1.474,1.411,-2.885,0.558,0.462,0.215,-0.719,-1.984,-1.538,0.25,-1.387,0.826
0.166,-0.043,-2.907,-2.864,1.475,1.41,-2.885,0.558,0.461,0.216,-0.717,-1.983,-1.54,0.248,-1.386,0.829
0.167,-0.044,-2.908,-2.864,1.476,1.41,-2.885,0.557,0.461,0.216,-0.718,-1.984,-1.542,0.246,-1.387,0.829
0.168,-0.044,-2.908,-2.865,1.476,1.41,-2.885,0.556,0.459,0.214,-0.72,-1.986,-1.544,0.246,-1.389,0.825
0.169,-0.044,-2.912,-2.869,1.478,1.412,-2.889,0.557,0.459,0.215,-0.719,-1.986,-1.542,0.246,-1.39,0.827
0.17,-0.044,-2.909,-2.865,1.476,1.411,-2.886,0.556,0.461,0.216,-0.718,-1.984,-1.54,0.246,-1.387,0.827
0.171,-0.044,-2.903,-2.86,1.474,1.408,-2.881,0.556,0.461,0.217,-0.716,-1.984,-1.539,0.247,-1.385,0.826
0.172,-0.044,-2.908,-2.864,1.476,1.41,-2.885,0.556,0.461,0.217,-0.715,-1.982,-1.538,0.247,-1.387,0.83
0.173,-0.045,-2.909,-2.865,1.477,1.409,-2.886,0.557,0.46,0.216,-0.715,-1.982,-1.54,0.246,-1.387,0.829
0.174,-0.047,-2.908,-2.861,1.478,1.407,-2.884,0.555,0.459,0.215,-0.717,-1.984,-1.542,0.246,-1.385,0.827
0.175,-0.049,-2.909,-2.861,1.479,1.406,-2.884,0.555,0.458,0.216,-0.718,-1.984,-1.542,0.245,-1.383,0.827
0.176,-0.049,-2.908,-2.86,1.478,1.405,-2.884,0.558,0.458,0.216,-0.718,-1.984,-1.543,0.244,-1.381,0.825
0.177,-0.046,-2.905,-2.86,1.476,1.407,-2.882,0.557,0.46,0.215,-0.717,-1.984,-1.542,0.245,-1.378,0.825
0.178,-0.044,-2.905,-2.861,1.474,1.409,-2.883,0.556,0.463,0.22,-0.714,-1.982,-1.541,0.247,-1.375,0.825
0.179,-0.043,-2.902,-2.859,1.473,1.407,-2.881,0.558,0.468,0.225,-0.712,-1.982,-1.542,0.247,-1.371,0.825
0.18,-0.044,-2.906,-2.863,1.476,1.409,-2.884,0.562,0.476,0.229,-0.71,-1.984,-1.544,0.245,-1.373,0.823
0.181,-0.047,-2.917,-2.87,1.482,1.412,-2.893,0.571,0.49,0.24,-0.709,-1.986,-1.547,0.242,-1.375,0.817
0.182,-0.048,-2.918,-2.872,1.483,1.412,-2.894,0.58,0.506,0.252,-0.707,-1.988,-1.551,0.24,-1.373,0.81
0.183,-0.047,-2.922,-2.876,1.485,1.415,-2.899,0.593,0.53,0.268,-0.702,-1.993,-1.556,0.235,-1.373,0.802
0.184,-0.051,-2.934,-2.884,1.492,1.417,-2.908,0.611,0.561,0.286,-0.699,-2.001,-1.564,0.229,-1.375,0.793
0.185,-0.053,-2.947,-2.894,1.5,1.42,-2.92,0.639,0.609,0.317,-0.693,-2.01,-1.577,0.217,-1.377,0.778
0.186,-0.06,-2.962,-2.902,1.512,1.421,-2.932,0.677,0.665,0.352,-0.685,-2.025,-1.595,0.202,-1.374,0.76
0.187,-0.07,-2.974,-2.904,1.522,1.417,-2.938,0.713,0.718,0.385,-0.686,-2.044,-1.613,0.184,-1.369,0.738
0.188,-0.077,-2.988,-2.911,1.533,1.417,-2.949,0.75,0.774,0.42,-0.684,-2.061,-1.632,0.167,-1.364,0.717
0.189,-0.083,-3.001,-2.918,1.542,1.418,-2.959,0.789,0.833,0.455,-0.68,-2.076,-1.647,0.152,-1.359,0.697
0.19,-0.088,-3.009,-2.921,1.549,1.416,-2.964,0.829,0.899,0.5,-0.674,-2.091,-1.663,0.14,-1.35,0.667
0.191,-0.092,-3.013,-2.921,1.552,1.415,-2.966,0.868,0.973,0.553,-0.657,-2.1,-1.677,0.13,-1.337,0.634
0.192,-0.088,-3.009,-2.921,1.548,1.417,-2.965,0.912,1.062,0.627,-0.627,-2.104,-1.687,0.124,-1.324,0.594
0.193,-0.085,-2.999,-2.914,1.542,1.415,-2.956,0.949,1.155,0.706,-0.594,-2.107,-1.695,0.12,-1.307,0.549
0.194,-0.082,-2.974,-2.893,1.528,1.405,-2.933,0.978,1.23,0.775,-0.561,-2.104,-1.696,0.122,-1.284,0.503
0.195,-0.077,-2.955,-2.878,1.516,1.401,-2.917,1.016,1.313,0.851,-0.526,-2.101,-1.699,0.124,-1.259,0.456
0.196,-0.07,-2.937,-2.867,1.504,1.398,-2.901,1.052,1.415,0.944,-0.474,-2.09,-1.697,0.134,-1.234,0.406
0.197,-0.058,-2.912,-2.854,1.484,1.399,-2.882,1.095,1.521,1.047,-0.408,-2.068,-1.687,0.15,-1.209,0.349
0.198,-0.044,-2.882,-2.839,1.463,1.397,-2.86,1.117,1.583,1.107,-0.369,-2.047,-1.675,0.166,-1.184,0.315
0.199,-0.033,-2.841,-2.809,1.437,1.389,-2.825,1.114,1.594,1.125,-0.347,-2.031,-1.659,0.183,-1.156,0.306
0.2,-0.018,-2.817,-2.8,1.417,1.391,-2.808,1.129,1.633,1.163,-0.306,-2.003,-1.637,0.21,-1.137,0.284
0.201,0.011,-2.802,-2.814,1.395,1.413,-2.808,1.138,1.661,1.202,-0.249,-1.958,-1.607,0.248,-1.125,0.27
0.202,0.04,-2.777,-2.817,1.369,1.429,-2.796,1.115,1.601,1.179,-0.219,-1.915,-1.574,0.286,-1.115,0.287
0.203,0.065,-2.748,-2.813,1.342,1.439,-2.781,1.085,1.556,1.167,-0.181,-1.871,-1.54,0.326,-1.108,0.301
0.204,0.1,-2.713,-2.813,1.307,1.456,-2.763,1.05,1.512,1.167,-0.118,-1.805,-1.49,0.378,-1.099,0.317
0.205,0.134,-2.659,-2.793,1.262,1.464,-2.726,1.003,1.431,1.144,-0.06,-1.733,-1.431,0.435,-1.081,0.335
0.206,0.162,-2.612,-2.775,1.225,1.468,-2.693,0.974,1.375,1.125,-0.007,-1.667,-1.377,0.489,-1.067,0.344
0.207,0.193,-2.545,-2.737,1.176,1.465,-2.641,0.925,1.276,1.081,0.044,-1.583,-1.308,0.555,-1.047,0.359
0.208,0.235,-2.459,-2.694,1.113,1.464,-2.576,0.834,1.141,1.026,0.108,-1.478,-1.217,0.641,-1.026,0.392
0.209,0.279,-2.374,-2.652,1.048,1.465,-2.513,0.725,0.993,0.942,0.154,-1.374,-1.123,0.728,-1.01,0.437
0.21,0.329,-2.275,-2.604,0.974,1.466,-2.439,0.587,0.799,0.85,0.224,-1.25,-1.02,0.83,-0.993,0.495
0.211,0.39,-2.177,-2.567,0.893,1.479,-2.372,0.418,0.579,0.756,0.323,-1.097,-0.894,0.955,-0.988,0.562
0.212,0.439,-2.058,-2.498,0.81,1.469,-2.279,0.252,0.347,0.626,0.386,-0.954,-0.77,1.069,-0.971,0.62
0.213,0.487,-1.943,-2.43,0.728,1.459,-2.187,0.091,0.147,0.531,0.472,-0.814,-0.654,1.179,-0.95,0.673
0.214,0.535,-1.836,-2.372,0.65,1.454,-2.104,-0.073,-0.056,0.433,0.556,-0.674,-0.536,1.291,-0.936,0.726
0.215,0.573,-1.712,-2.286,0.57,1.429,-1.999,-0.225,-0.266,0.308,0.609,-0.546,-0.423,1.391,-0.915,0.767
0.216,0.595,-1.584,-2.179,0.494,1.387,-1.881,-0.369,-0.448,0.191,0.654,-0.442,-0.327,1.47,-0.889,0.802
0.217,0.596,-1.469,-2.065,0.437,1.331,-1.766,-0.485,-0.642,0.034,0.654,-0.367,-0.253,1.52,-0.864,0.836
0.218,0.602,-1.333,-1.935,0.366,1.268,-1.634,-0.621,-0.875,-0.143,0.645,-0.286,-0.169,1.575,-0.829,0.875
0.219,0.615,-1.181,-1.796,0.283,1.206,-1.488,-0.784,-1.127,-0.341,0.617,-0.202,-0.071,1.643,-0.791,0.925
0.22,0.611,-1.078,-1.69,0.234,1.151,-1.383,-0.923,-1.339,-0.545,0.551,-0.146,0.002,1.689,-0.775,0.985
0.221,0.61,-0.983,-1.593,0.186,1.102,-1.288,-1.048,-1.512,-0.716,0.509,-0.091,0.067,1.731,-0.756,1.026
0.222,0.613,-0.917,-1.53,0.152,1.072,-1.224,-1.143,-1.656,-0.859,0.481,-0.035,0.125,1.775,-0.747,1.066
0.223,0.629,-0.922,-1.552,0.146,1.091,-1.237,-1.215,-1.742,-0.938,0.507,0.041,0.18,1.831,-0.769,1.111
0.224,0.647,-0.954,-1.602,0.153,1.125,-1.278,-1.252,-1.764,-0.973,0.568,0.131,0.238,1.893,-0.802,1.139
0.225,0.633,-0.976,-1.609,0.172,1.121,-1.292,-1.274,-1.81,-1.058,0.549,0.155,0.261,1.909,-0.825,1.173
0.226,0.603,-1.026,-1.629,0.212,1.116,-1.327,-1.266,-1.847,-1.135,0.524,0.163,0.263,1.903,-0.859,1.196
0.227,0.527,-1.147,-1.673,0.309,1.101,-1.409,-1.185,-1.798,-1.163,0.492,0.132,0.217,1.845,-0.921,1.194
0.228,0.459,-1.25,-1.708,0.396,1.083,-1.478,-1.124,-1.762,-1.194,0.446,0.084,0.165,1.778,-0.971,1.196
0.229,0.43,-1.352,-1.784,0.461,1.107,-1.567,-1.095,-1.734,-1.208,0.417,0.062,0.132,1.74,-1.026,1.214
0.23,0.411,-1.458,-1.869,0.523,1.141,-1.663,-1.087,-1.675,-1.171,0.421,0.025,0.083,1.698,-1.081,1.23
0.231,0.41,-1.566,-1.977,0.578,1.194,-1.771,-1.095,-1.599,-1.104,0.441,-0.015,0.033,1.662,-1.139,1.249
0.232,0.41,-1.702,-2.112,0.645,1.261,-1.907,-1.084,-1.517,-1.034,0.436,-0.069,-0.024,1.618,-1.214,1.274
0.233,0.403,-1.837,-2.24,0.717,1.321,-2.038,-1.044,-1.43,-0.961,0.418,-0.133,-0.089,1.562,-1.284,1.29
0.234,0.374,-1.994,-2.369,0.809,1.372,-2.181,-0.964,-1.351,-0.919,0.346,-0.235,-0.183,1.472,-1.355,1.304
0.235,0.341,-2.144,-2.486,0.902,1.413,-2.314,-0.886,-1.294,-0.886,0.256,-0.358,-0.29,1.368,-1.419,1.321
0.236,0.297,-2.289,-2.587,0.996,1.442,-2.438,-0.779,-1.195,-0.824,0.166,-0.513,-0.419,1.246,-1.473,1.321
0.237,0.249,-2.441,-2.69,1.096,1.47,-2.565,-0.658,-1.079,-0.759,0.047,-0.712,-0.574,1.105,-1.524,1.327
0.238,0.212,-2.558,-2.771,1.173,1.492,-2.664,-0.57,-0.989,-0.723,-0.099,-0.906,-0.711,0.977,-1.569,1.34
0.239,0.175,-2.63,-2.805,1.228,1.49,-2.717,-0.492,-0.922,-0.709,-0.259,-1.084,-0.829,0.864,-1.585,1.347
0.24,0.145,-2.684,-2.829,1.27,1.487,-2.756,-0.421,-0.868,-0.695,-0.401,-1.239,-0.925,0.771,-1.593,1.354
0.241,0.121,-2.732,-2.854,1.305,1.488,-2.792,-0.348,-0.786,-0.652,-0.493,-1.367,-1.01,0.694,-1.597,1.341
0.242,0.101,-2.764,-2.865,1.331,1.483,-2.814,-0.28,-0.718,-0.611,-0.576,-1.486,-1.087,0.621,-1.591,1.323
0.243,0.072,-2.796,-2.869,1.362,1.471,-2.833,-0.193,-0.616,-0.537,-0.629,-1.607,-1.18,0.535,-1.579,1.285
0.244,0.051,-2.851,-2.903,1.399,1.478,-2.877,-0.088,-0.468,-0.435,-0.657,-1.708,-1.27,0.46,-1.579,1.24
0.245,0.038,-2.887,-2.926,1.425,1.482,-2.906,-0.017,-0.368,-0.379,-0.724,-1.784,-1.327,0.407,-1.576,1.216
0.246,0.021,-2.885,-2.906,1.431,1.464,-2.895,0.025,-0.305,-0.349,-0.798,-1.845,-1.367,0.361,-1.554,1.188
0.247,0.003,-2.874,-2.878,1.436,1.44,-2.876,0.064,-0.255,-0.337,-0.89,-1.913,-1.405,0.316,-1.534,1.17
0.248,-0.014,-2.875,-2.862,1.444,1.424,-2.868,0.102,-0.2,-0.31,-0.937,-1.96,-1.434,0.284,-1.522,1.149
0.249,-0.022,-2.877,-2.855,1.449,1.417,-2.865,0.146,-0.127,-0.249,-0.904,-1.96,-1.446,0.277,-1.508,1.113
0.25,-0.024,-2.869,-2.846,1.446,1.411,-2.857,0.187,-0.06,-0.188,-0.857,-1.942,-1.447,0.281,-1.489,1.077
0.251,-0.021,-2.861,-2.841,1.442,1.409,-2.85,0.22,0.004,-0.127,-0.809,-1.925,-1.45,0.286,-1.472,1.04
0.252,-0.028,-2.857,-2.83,1.442,1.401,-2.843,0.261,0.07,-0.067,-0.766,-1.911,-1.452,0.287,-1.456,1.002
0.253,-0.029,-2.857,-2.828,1.443,1.399,-2.842,0.299,0.135,-0.009,-0.73,-1.899,-1.451,0.292,-1.444,0.968
0.254,-0.024,-2.848,-2.825,1.436,1.401,-2.836,0.335,0.199,0.048,-0.694,-1.887,-1.448,0.302,-1.431,0.933
0.255,-0.02,-2.826,-2.807,1.423,1.393,-2.816,0.366,0.262,0.105,-0.658,-1.87,-1.442,0.311,-1.413,0.892
0.256,-0.015,-2.81,-2.796,1.413,1.39,-2.803,0.397,0.322,0.16,-0.625,-1.855,-1.435,0.32,-1.401,0.854
0.257,-0.011,-2.8,-2.79,1.405,1.39,-2.795,0.425,0.372,0.204,-0.597,-1.842,-1.429,0.327,-1.391,0.824
0.258,-0.006,-2.792,-2.785,1.399,1.389,-2.788,0.449,0.414,0.242,-0.578,-1.833,-1.423,0.334,-1.38,0.801
0.259,-0.006,-2.786,-2.78,1.396,1.387,-2.783,0.475,0.458,0.277,-0.559,-1.827,-1.422,0.338,-1.371,0.779
0.26,-0.004,-2.785,-2.782,1.395,1.389,-2.784,0.497,0.493,0.304,-0.546,-1.825,-1.423,0.339,-1.369,0.761
0.261,-0.004,-2.791,-2.788,1.397,1.391,-2.788,0.514,0.516,0.323,-0.543,-1.827,-1.425,0.339,-1.367,0.752
0.262,-0.006,-2.797,-2.792,1.402,1.393,-2.794,0.53,0.538,0.341,-0.539,-1.83,-1.429,0.337,-1.364,0.744
0.263,-0.005,-2.804,-2.798,1.405,1.396,-2.8,0.542,0.553,0.352,-0.54,-1.837,-1.435,0.334,-1.364,0.739
0.264,-0.004,-2.811,-2.808,1.407,1.402,-2.808,0.553,0.566,0.359,-0.544,-1.843,-1.442,0.33,-1.367,0.737
0.265,-0.003,-2.819,-2.817,1.411,1.407,-2.817,0.564,0.58,0.366,-0.543,-1.845,-1.442,0.329,-1.369,0.736
0.266,-0.005,-2.826,-2.821,1.416,1.407,-2.823,0.573,0.59,0.372,-0.543,-1.851,-1.446,0.326,-1.369,0.736
0.267,-0.006,-2.829,-2.824,1.417,1.409,-2.826,0.578,0.598,0.379,-0.547,-1.857,-1.452,0.323,-1.37,0.733
0.268,-0.005,-2.83,-2.825,1.417,1.411,-2.828,0.584,0.606,0.383,-0.548,-1.861,-1.455,0.321,-1.367,0.732
0.269,-0.004,-2.834,-2.83,1.419,1.413,-2.832,0.591,0.614,0.392,-0.549,-1.865,-1.458,0.318,-1.367,0.729
0.27,-0.007,-2.836,-2.829,1.421,1.411,-2.833,0.599,0.623,0.399,-0.55,-1.869,-1.462,0.314,-1.367,0.725
0.271,-0.006,-2.837,-2.83,1.421,1.412,-2.833,0.606,0.633,0.405,-0.547,-1.872,-1.464,0.312,-1.364,0.722
0.272,-0.009,-2.843,-2.835,1.425,1.413,-2.838,0.61,0.64,0.408,-0.548,-1.874,-1.466,0.311,-1.365,0.72
0.273,-0.013,-2.848,-2.835,1.431,1.411,-2.841,0.614,0.646,0.412,-0.548,-1.877,-1.469,0.309,-1.365,0.717
0.274,-0.016,-2.847,-2.832,1.431,1.407,-2.839,0.619,0.655,0.421,-0.547,-1.88,-1.471,0.306,-1.364,0.713
0.275,-0.015,-2.846,-2.833,1.431,1.409,-2.839,0.623,0.662,0.428,-0.55,-1.883,-1.473,0.304,-1.361,0.709
0.276,-0.013,-2.846,-2.833,1.429,1.411,-2.839,0.626,0.669,0.432,-0.55,-1.883,-1.475,0.303,-1.359,0.708
0.277,-0.013,-2.849,-2.836,1.431,1.411,-2.841,0.63,0.675,0.436,-0.55,-1.886,-1.476,0.301,-1.358,0.706
0.278,-0.013,-2.849,-2.837,1.431,1.411,-2.842,0.632,0.679,0.442,-0.549,-1.887,-1.479,0.3,-1.359,0.702
0.279,-0.013,-2.846,-2.833,1.429,1.41,-2.84,0.635,0.684,0.448,-0.547,-1.887,-1.482,0.299,-1.355,0.701
0.28,-0.012,-2.849,-2.838,1.431,1.413,-2.843,0.64,0.691,0.452,-0.547,-1.888,-1.482,0.298,-1.359,0.697
0.281,-0.011,-2.849,-2.84,1.431,1.415,-2.844,0.643,0.694,0.458,-0.547,-1.89,-1.483,0.297,-1.359,0.695
0.282,-0.009,-2.85,-2.842,1.43,1.417,-2.846,0.645,0.7,0.466,-0.546,-1.89,-1.483,0.297,-1.357,0.694
0.283,-0.01,-2.852,-2.843,1.431,1.417,-2.847,0.649,0.705,0.47,-0.544,-1.891,-1.482,0.297,-1.357,0.69
0.284,-0.009,-2.849,-2.841,1.429,1.416,-2.845,0.652,0.709,0.472,-0.543,-1.891,-1.484,0.297,-1.353,0.688
0.285,-0.006,-2.849,-2.844,1.428,1.419,-2.846,0.657,0.715,0.474,-0.54,-1.887,-1.482,0.298,-1.352,0.687
0.286,-0.009,-2.853,-2.845,1.431,1.419,-2.848,0.66,0.72,0.479,-0.536,-1.887,-1.48,0.299,-1.353,0.685
0.287,-0.011,-2.853,-2.842,1.433,1.415,-2.848,0.662,0.723,0.485,-0.534,-1.889,-1.482,0.298,-1.351,0.683
0.288,-0.013,-2.855,-2.842,1.434,1.415,-2.848,0.665,0.729,0.489,-0.533,-1.887,-1.48,0.299,-1.351,0.68
0.289,-0.013,-2.857,-2.845,1.435,1.416,-2.85,0.665,0.732,0.489,-0.532,-1.887,-1.481,0.297,-1.349,0.678
0.29,-0.013,-2.855,-2.842,1.434,1.415,-2.848,0.665,0.733,0.492,-0.53,-1.887,-1.484,0.297,-1.345,0.677
0.291,-0.013,-2.852,-2.839,1.433,1.413,-2.845,0.667,0.737,0.496,-0.528,-1.885,-1.481,0.301,-1.343,0.675
0.292,-0.012,-2.853,-2.842,1.433,1.415,-2.847,0.67,0.741,0.498,-0.525,-1.884,-1.482,0.301,-1.345,0.676
0.293,-0.013,-2.855,-2.843,1.434,1.415,-2.849,0.671,0.743,0.5,-0.526,-1.885,-1.481,0.3,-1.345,0.674
0.294,-0.015,-2.855,-2.84,1.435,1.413,-2.847,0.672,0.744,0.504,-0.526,-1.887,-1.482,0.3,-1.345,0.672
0.295,-0.016,-2.853,-2.837,1.435,1.411,-2.845,0.67,0.747,0.509,-0.527,-1.886,-1.484,0.301,-1.343,0.67
0.296,-0.014,-2.85,-2.837,1.433,1.411,-2.842,0.669,0.749,0.51,-0.527,-1.885,-1.485,0.302,-1.341,0.667
0.297,-0.011,-2.85,-2.839,1.431,1.413,-2.844,0.671,0.751,0.515,-0.523,-1.886,-1.485,0.302,-1.345,0.665
0.298,-0.011,-2.85,-2.84,1.431,1.413,-2.845,0.673,0.755,0.518,-0.521,-1.885,-1.482,0.303,-1.345,0.666
0.299,-0.013,-2.849,-2.837,1.431,1.413,-2.843,0.674,0.759,0.519,-0.519,-1.884,-1.482,0.303,-1.345,0.666
0.3,-0.013,-2.851,-2.838,1.433,1.413,-2.845,0.674,0.763,0.523,-0.518,-1.882,-1.482,0.305,-1.349,0.663
0.301,-0.011,-2.854,-2.844,1.433,1.416,-2.849,0.677,0.765,0.526,-0.517,-1.881,-1.482,0.305,-1.35,0.662
0.302,-0.01,-2.85,-2.841,1.43,1.415,-2.845,0.679,0.769,0.532,-0.516,-1.881,-1.482,0.304,-1.351,0.657
0.303,-0.01,-2.85,-2.841,1.43,1.415,-2.845,0.68,0.771,0.535,-0.515,-1.88,-1.48,0.306,-1.351,0.657
0.304,-0.011,-2.853,-2.842,1.432,1.415,-2.847,0.681,0.774,0.537,-0.509,-1.877,-1.478,0.307,-1.352,0.657
0.305,-0.011,-2.852,-2.841,1.432,1.415,-2.846,0.682,0.779,0.539,-0.505,-1.875,-1.476,0.306,-1.355,0.656
0.306,-0.009,-2.853,-2.845,1.431,1.418,-2.849,0.682,0.781,0.54,-0.503,-1.873,-1.476,0.309,-1.355,0.657
0.307,-0.011,-2.853,-2.842,1.431,1.416,-2.847,0.682,0.782,0.544,-0.501,-1.871,-1.476,0.309,-1.353,0.653
0.308,-0.009,-2.853,-2.844,1.431,1.417,-2.848,0.683,0.785,0.546,-0.5,-1.873,-1.476,0.309,-1.351,0.652
0.309,-0.006,-2.852,-2.847,1.429,1.421,-2.849,0.683,0.788,0.549,-0.498,-1.872,-1.474,0.309,-1.352,0.652
0.31,-0.006,-2.848,-2.842,1.427,1.418,-2.845,0.685,0.791,0.552,-0.497,-1.871,-1.472,0.311,-1.348,0.65
0.311,-0.005,-2.844,-2.839,1.424,1.417,-2.841,0.685,0.794,0.553,-0.493,-1.869,-1.472,0.311,-1.345,0.646
0.312,-0.006,-2.845,-2.838,1.425,1.416,-2.841,0.688,0.798,0.557,-0.49,-1.865,-1.47,0.312,-1.345,0.646
0.313,-0.005,-2.845,-2.841,1.425,1.418,-2.842,0.689,0.799,0.559,-0.489,-1.866,-1.47,0.313,-1.344,0.647
0.314,-0.003,-2.842,-2.841,1.423,1.419,-2.841,0.689,0.802,0.564,-0.487,-1.866,-1.469,0.315,-1.345,0.644
0.315,0,-2.84,-2.841,1.419,1.42,-2.839,0.686,0.805,0.569,-0.487,-1.863,-1.47,0.317,-1.341,0.642
0.316,-0.003,-2.837,-2.836,1.419,1.417,-2.836,0.689,0.808,0.574,-0.484,-1.863,-1.468,0.317,-1.339,0.639
0.317,-0.003,-2.837,-2.834,1.42,1.415,-2.835,0.69,0.811,0.577,-0.48,-1.862,-1.468,0.318,-1.339,0.639
0.318,0.001,-2.836,-2.837,1.417,1.419,-2.836,0.689,0.813,0.578,-0.478,-1.861,-1.467,0.319,-1.337,0.636
0.319,0.001,-2.833,-2.834,1.416,1.417,-2.833,0.69,0.814,0.583,-0.478,-1.861,-1.466,0.319,-1.335,0.635
0.32,0.004,-2.834,-2.837,1.415,1.421,-2.835,0.691,0.817,0.586,-0.477,-1.861,-1.468,0.318,-1.338,0.634
0.321,0.004,-2.834,-2.838,1.415,1.421,-2.836,0.692,0.819,0.59,-0.475,-1.857,-1.466,0.32,-1.337,0.631
0.322,0.004,-2.832,-2.837,1.414,1.421,-2.833,0.693,0.822,0.594,-0.471,-1.856,-1.465,0.322,-1.333,0.632
0.323,0.005,-2.832,-2.837,1.413,1.421,-2.833,0.694,0.825,0.596,-0.47,-1.857,-1.464,0.323,-1.335,0.631
0.324,0.007,-2.829,-2.837,1.411,1.422,-2.832,0.695,0.828,0.599,-0.467,-1.853,-1.462,0.325,-1.335,0.628
0.325,0.011,-2.829,-2.84,1.409,1.425,-2.834,0.697,0.832,0.601,-0.461,-1.849,-1.459,0.327,-1.337,0.629
0.326,0.012,-2.829,-2.841,1.409,1.427,-2.835,0.697,0.834,0.603,-0.457,-1.847,-1.457,0.328,-1.337,0.628
0.327,0.012,-2.828,-2.841,1.408,1.426,-2.834,0.698,0.837,0.605,-0.455,-1.846,-1.457,0.329,-1.337,0.626
0.328,0.013,-2.826,-2.84,1.406,1.427,-2.832,0.698,0.84,0.608,-0.453,-1.847,-1.458,0.328,-1.335,0.625
0.329,0.017,-2.825,-2.842,1.405,1.429,-2.833,0.699,0.842,0.61,-0.449,-1.844,-1.456,0.329,-1.336,0.625
0.33,0.018,-2.823,-2.841,1.403,1.429,-2.832,0.698,0.846,0.612,-0.448,-1.843,-1.456,0.331,-1.335,0.623
0.331,0.018,-2.82,-2.838,1.401,1.428,-2.829,0.698,0.849,0.614,-0.445,-1.841,-1.454,0.333,-1.333,0.619
0.332,0.017,-2.823,-2.841,1.403,1.429,-2.832,0.698,0.85,0.617,-0.443,-1.839,-1.452,0.333,-1.337,0.619
0.333,0.015,-2.825,-2.841,1.405,1.427,-2.833,0.699,0.853,0.622,-0.439,-1.837,-1.452,0.332,-1.336,0.616
0.334,0.013,-2.826,-2.84,1.406,1.427,-2.833,0.699,0.856,0.624,-0.436,-1.835,-1.452,0.334,-1.337,0.615
0.335,0.013,-2.825,-2.838,1.406,1.425,-2.831,0.697,0.859,0.627,-0.436,-1.837,-1.452,0.336,-1.334,0.613
0.336,0.014,-2.821,-2.836,1.404,1.425,-2.829,0.699,0.862,0.631,-0.435,-1.833,-1.452,0.337,-1.332,0.609
0.337,0.015,-2.821,-2.837,1.403,1.425,-2.829,0.7,0.866,0.638,-0.43,-1.831,-1.45,0.338,-1.333,0.61
0.338,0.013,-2.82,-2.834,1.403,1.423,-2.826,0.7,0.87,0.641,-0.426,-1.831,-1.448,0.339,-1.332,0.608
0.339,0.017,-2.816,-2.833,1.399,1.425,-2.824,0.7,0.872,0.644,-0.422,-1.828,-1.448,0.34,-1.329,0.605
0.34,0.021,-2.816,-2.837,1.397,1.429,-2.826,0.701,0.876,0.648,-0.418,-1.827,-1.448,0.341,-1.331,0.605
0.341,0.024,-2.814,-2.838,1.395,1.431,-2.826,0.702,0.878,0.65,-0.418,-1.825,-1.447,0.343,-1.333,0.602
0.342,0.025,-2.813,-2.838,1.394,1.431,-2.825,0.701,0.882,0.656,-0.414,-1.825,-1.445,0.343,-1.333,0.598
0.343,0.022,-2.813,-2.836,1.395,1.429,-2.824,0.703,0.886,0.66,-0.412,-1.823,-1.442,0.346,-1.33,0.597
0.344,0.024,-2.812,-2.836,1.394,1.429,-2.823,0.704,0.889,0.661,-0.409,-1.821,-1.442,0.347,-1.33,0.597
0.345,0.025,-2.812,-2.837,1.393,1.431,-2.824,0.705,0.891,0.664,-0.404,-1.819,-1.44,0.348,-1.332,0.597
0.346,0.025,-2.812,-2.837,1.394,1.431,-2.824,0.705,0.894,0.667,-0.403,-1.817,-1.441,0.349,-1.333,0.597
0.347,0.026,-2.812,-2.838,1.393,1.433,-2.825,0.705,0.898,0.672,-0.399,-1.814,-1.441,0.348,-1.333,0.595
0.348,0.029,-2.812,-2.841,1.391,1.435,-2.826,0.706,0.902,0.678,-0.395,-1.811,-1.438,0.351,-1.333,0.594
0.349,0.031,-2.811,-2.842,1.389,1.437,-2.825,0.706,0.906,0.683,-0.392,-1.808,-1.439,0.351,-1.334,0.592
0.35,0.033,-2.806,-2.84,1.387,1.436,-2.822,0.707,0.91,0.685,-0.389,-1.808,-1.437,0.353,-1.332,0.589
0.351,0.034,-2.803,-2.837,1.384,1.435,-2.819,0.706,0.911,0.688,-0.386,-1.806,-1.434,0.356,-1.329,0.586
0.352,0.032,-2.806,-2.837,1.387,1.435,-2.821,0.706,0.912,0.69,-0.381,-1.804,-1.434,0.357,-1.329,0.586
0.353,0.031,-2.808,-2.84,1.389,1.435,-2.824,0.707,0.916,0.694,-0.379,-1.801,-1.433,0.358,-1.329,0.588
0.354,0.032,-2.805,-2.837,1.387,1.435,-2.821,0.707,0.919,0.697,-0.378,-1.802,-1.433,0.36,-1.327,0.586
0.355,0.033,-2.804,-2.837,1.385,1.435,-2.82,0.708,0.925,0.703,-0.376,-1.801,-1.433,0.361,-1.327,0.583
0.356,0.035,-2.8,-2.836,1.382,1.435,-2.817,0.708,0.929,0.709,-0.373,-1.8,-1.433,0.361,-1.325,0.579
0.357,0.038,-2.798,-2.837,1.38,1.438,-2.817,0.707,0.933,0.713,-0.37,-1.798,-1.432,0.364,-1.323,0.578
0.358,0.038,-2.796,-2.834,1.379,1.436,-2.814,0.709,0.938,0.718,-0.365,-1.796,-1.431,0.365,-1.325,0.575
0.359,0.039,-2.792,-2.832,1.377,1.435,-2.811,0.708,0.941,0.723,-0.362,-1.794,-1.428,0.367,-1.323,0.574
0.36,0.041,-2.793,-2.835,1.376,1.438,-2.814,0.71,0.945,0.726,-0.357,-1.79,-1.425,0.37,-1.323,0.574
0.361,0.042,-2.795,-2.837,1.376,1.44,-2.815,0.711,0.95,0.732,-0.355,-1.786,-1.425,0.37,-1.323,0.571
0.362,0.04,-2.792,-2.832,1.376,1.436,-2.812,0.711,0.955,0.739,-0.351,-1.785,-1.423,0.372,-1.321,0.568
0.363,0.038,-2.789,-2.829,1.376,1.433,-2.808,0.712,0.96,0.742,-0.348,-1.784,-1.422,0.373,-1.32,0.565
0.364,0.043,-2.791,-2.835,1.373,1.439,-2.812,0.712,0.964,0.746,-0.343,-1.78,-1.42,0.376,-1.321,0.564
0.365,0.046,-2.791,-2.837,1.373,1.442,-2.813,0.714,0.97,0.75,-0.335,-1.777,-1.416,0.379,-1.321,0.562
0.366,0.045,-2.79,-2.836,1.373,1.44,-2.812,0.713,0.974,0.753,-0.332,-1.774,-1.413,0.382,-1.318,0.562
0.367,0.045,-2.791,-2.837,1.373,1.44,-2.813,0.711,0.977,0.758,-0.329,-1.773,-1.413,0.384,-1.318,0.559
0.368,0.046,-2.789,-2.837,1.371,1.442,-2.812,0.712,0.982,0.762,-0.326,-1.772,-1.413,0.383,-1.318,0.556
0.369,0.049,-2.788,-2.837,1.369,1.444,-2.812,0.713,0.988,0.768,-0.321,-1.768,-1.411,0.385,-1.321,0.555
0.37,0.05,-2.785,-2.835,1.367,1.442,-2.809,0.715,0.992,0.771,-0.318,-1.764,-1.41,0.386,-1.321,0.551
0.371,0.052,-2.781,-2.834,1.365,1.442,-2.807,0.714,0.996,0.774,-0.315,-1.764,-1.409,0.388,-1.317,0.551
0.372,0.052,-2.78,-2.833,1.365,1.442,-2.806,0.713,1.002,0.78,-0.306,-1.76,-1.405,0.39,-1.319,0.549
0.373,0.052,-2.78,-2.832,1.364,1.442,-2.805,0.715,1.008,0.785,-0.302,-1.756,-1.405,0.392,-1.319,0.545
0.374,0.053,-2.778,-2.832,1.363,1.442,-2.804,0.716,1.013,0.79,-0.3,-1.756,-1.405,0.394,-1.317,0.544
0.375,0.053,-2.778,-2.832,1.363,1.442,-2.804,0.715,1.017,0.796,-0.298,-1.756,-1.403,0.396,-1.315,0.538
0.376,0.052,-2.776,-2.829,1.363,1.44,-2.802,0.715,1.022,0.804,-0.294,-1.753,-1.403,0.396,-1.313,0.534
0.377,0.053,-2.775,-2.829,1.361,1.441,-2.801,0.716,1.028,0.808,-0.289,-1.75,-1.402,0.399,-1.313,0.534
0.378,0.058,-2.772,-2.83,1.357,1.444,-2.801,0.715,1.032,0.814,-0.284,-1.748,-1.401,0.4,-1.312,0.531
0.379,0.059,-2.769,-2.828,1.355,1.444,-2.798,0.717,1.038,0.821,-0.279,-1.744,-1.397,0.404,-1.313,0.527
0.38,0.061,-2.771,-2.832,1.355,1.446,-2.8,0.718,1.046,0.826,-0.274,-1.742,-1.397,0.406,-1.317,0.525
0.381,0.064,-2.771,-2.836,1.353,1.45,-2.803,0.718,1.052,0.833,-0.271,-1.738,-1.395,0.406,-1.317,0.523
0.382,0.068,-2.767,-2.835,1.349,1.452,-2.8,0.717,1.056,0.838,-0.266,-1.736,-1.393,0.41,-1.316,0.522
0.383,0.07,-2.764,-2.834,1.347,1.452,-2.799,0.718,1.063,0.843,-0.262,-1.735,-1.393,0.41,-1.317,0.519
0.384,0.072,-2.763,-2.836,1.345,1.454,-2.799,0.719,1.069,0.85,-0.256,-1.73,-1.389,0.412,-1.319,0.515
0.385,0.076,-2.763,-2.839,1.343,1.458,-2.8,0.718,1.074,0.855,-0.249,-1.726,-1.387,0.414,-1.32,0.511
0.386,0.075,-2.761,-2.838,1.343,1.456,-2.8,0.72,1.083,0.862,-0.243,-1.721,-1.385,0.416,-1.321,0.509
0.387,0.076,-2.76,-2.837,1.342,1.456,-2.798,0.72,1.089,0.869,-0.236,-1.719,-1.383,0.418,-1.321,0.506
0.388,0.076,-2.76,-2.837,1.341,1.457,-2.798,0.722,1.097,0.875,-0.232,-1.716,-1.382,0.42,-1.323,0.501
0.389,0.079,-2.76,-2.838,1.341,1.458,-2.799,0.723,1.105,0.88,-0.227,-1.713,-1.379,0.422,-1.323,0.498
0.39,0.084,-2.755,-2.839,1.335,1.462,-2.796,0.722,1.111,0.886,-0.221,-1.71,-1.378,0.425,-1.32,0.495
0.391,0.083,-2.751,-2.835,1.334,1.459,-2.792,0.724,1.117,0.892,-0.215,-1.706,-1.377,0.427,-1.317,0.493
0.392,0.083,-2.753,-2.837,1.335,1.46,-2.795,0.726,1.125,0.898,-0.208,-1.702,-1.375,0.428,-1.315,0.489
0.393,0.085,-2.753,-2.839,1.334,1.462,-2.796,0.725,1.13,0.905,-0.203,-1.7,-1.373,0.431,-1.312,0.487
0.394,0.087,-2.751,-2.839,1.332,1.464,-2.795,0.725,1.135,0.91,-0.2,-1.698,-1.373,0.435,-1.308,0.485
0.395,0.09,-2.746,-2.837,1.328,1.463,-2.791,0.724,1.141,0.919,-0.196,-1.696,-1.372,0.439,-1.303,0.48
0.396,0.089,-2.743,-2.833,1.327,1.461,-2.787,0.724,1.149,0.928,-0.19,-1.693,-1.37,0.44,-1.3,0.475
0.397,0.093,-2.741,-2.834,1.324,1.464,-2.787,0.727,1.159,0.937,-0.182,-1.688,-1.365,0.444,-1.299,0.471
0.398,0.096,-2.739,-2.834,1.321,1.464,-2.786,0.727,1.169,0.945,-0.174,-1.683,-1.362,0.448,-1.296,0.467
0.399,0.096,-2.736,-2.832,1.32,1.464,-2.783,0.727,1.177,0.953,-0.169,-1.679,-1.361,0.449,-1.298,0.462
0.4,0.097,-2.733,-2.83,1.319,1.463,-2.781,0.728,1.185,0.962,-0.163,-1.674,-1.358,0.451,-1.3,0.46
0.401,0.098,-2.734,-2.832,1.318,1.464,-2.783,0.729,1.193,0.97,-0.155,-1.67,-1.355,0.454,-1.302,0.455
0.402,0.1,-2.731,-2.831,1.315,1.466,-2.78,0.73,1.201,0.98,-0.147,-1.665,-1.353,0.459,-1.302,0.451
0.403,0.103,-2.728,-2.832,1.312,1.468,-2.78,0.729,1.21,0.99,-0.141,-1.661,-1.349,0.463,-1.3,0.45
0.404,0.106,-2.73,-2.836,1.312,1.471,-2.783,0.731,1.22,0.996,-0.133,-1.655,-1.347,0.465,-1.305,0.445
0.405,0.108,-2.728,-2.837,1.31,1.472,-2.782,0.732,1.228,1.005,-0.124,-1.649,-1.342,0.468,-1.307,0.442
0.406,0.107,-2.727,-2.833,1.31,1.47,-2.78,0.733,1.236,1.013,-0.117,-1.647,-1.341,0.471,-1.305,0.438
0.407,0.107,-2.725,-2.833,1.31,1.47,-2.78,0.733,1.246,1.022,-0.111,-1.641,-1.339,0.474,-1.306,0.433
0.408,0.111,-2.724,-2.834,1.306,1.473,-2.779,0.734,1.255,1.032,-0.102,-1.636,-1.335,0.478,-1.306,0.43
0.409,0.113,-2.724,-2.837,1.306,1.475,-2.781,0.734,1.263,1.041,-0.093,-1.631,-1.331,0.482,-1.308,0.426
0.41,0.117,-2.719,-2.837,1.301,1.477,-2.778,0.733,1.273,1.05,-0.086,-1.625,-1.327,0.487,-1.306,0.424
0.411,0.12,-2.712,-2.833,1.296,1.476,-2.772,0.734,1.282,1.059,-0.075,-1.619,-1.324,0.49,-1.302,0.418
0.412,0.12,-2.713,-2.833,1.296,1.476,-2.773,0.735,1.292,1.065,-0.068,-1.615,-1.321,0.493,-1.302,0.416
0.413,0.122,-2.711,-2.834,1.294,1.478,-2.772,0.734,1.3,1.075,-0.06,-1.609,-1.319,0.497,-1.298,0.413
0.414,0.127,-2.708,-2.836,1.29,1.482,-2.772,0.734,1.307,1.085,-0.053,-1.604,-1.318,0.5,-1.296,0.407
0.415,0.13,-2.705,-2.836,1.288,1.482,-2.77,0.732,1.315,1.095,-0.048,-1.601,-1.315,0.505,-1.294,0.404
0.416,0.131,-2.703,-2.833,1.286,1.482,-2.768,0.733,1.323,1.105,-0.04,-1.597,-1.313,0.509,-1.293,0.398
0.417,0.134,-2.701,-2.836,1.283,1.484,-2.768,0.735,1.335,1.114,-0.032,-1.59,-1.309,0.514,-1.292,0.393
0.418,0.137,-2.696,-2.834,1.28,1.485,-2.765,0.735,1.344,1.125,-0.022,-1.583,-1.306,0.517,-1.289,0.387
0.419,0.139,-2.692,-2.83,1.276,1.484,-2.761,0.735,1.351,1.134,-0.014,-1.578,-1.303,0.523,-1.285,0.383
0.42,0.141,-2.692,-2.833,1.275,1.488,-2.763,0.736,1.361,1.145,-0.004,-1.571,-1.297,0.527,-1.286,0.381
0.421,0.146,-2.689,-2.836,1.272,1.491,-2.763,0.736,1.371,1.155,0.005,-1.565,-1.294,0.531,-1.286,0.377
0.422,0.148,-2.683,-2.831,1.268,1.49,-2.757,0.736,1.38,1.165,0.013,-1.559,-1.29,0.535,-1.283,0.369
0.423,0.151,-2.679,-2.83,1.264,1.49,-2.755,0.736,1.389,1.175,0.022,-1.553,-1.286,0.54,-1.283,0.362
0.424,0.158,-2.675,-2.834,1.258,1.496,-2.755,0.734,1.399,1.183,0.033,-1.546,-1.28,0.546,-1.28,0.363
0.425,0.162,-2.674,-2.836,1.256,1.498,-2.755,0.735,1.407,1.192,0.045,-1.538,-1.276,0.55,-1.28,0.36
0.426,0.166,-2.671,-2.837,1.252,1.502,-2.755,0.737,1.416,1.201,0.055,-1.53,-1.27,0.555,-1.28,0.354
0.427,0.17,-2.667,-2.837,1.248,1.504,-2.752,0.737,1.425,1.21,0.065,-1.523,-1.266,0.56,-1.279,0.351
0.428,0.172,-2.665,-2.837,1.246,1.505,-2.751,0.737,1.433,1.218,0.074,-1.515,-1.262,0.566,-1.278,0.347
0.429,0.176,-2.664,-2.841,1.244,1.508,-2.752,0.734,1.442,1.228,0.084,-1.508,-1.258,0.57,-1.276,0.342
0.43,0.179,-2.659,-2.838,1.24,1.508,-2.748,0.732,1.451,1.237,0.095,-1.502,-1.254,0.577,-1.276,0.336
0.431,0.186,-2.651,-2.838,1.232,1.512,-2.744,0.732,1.458,1.246,0.105,-1.494,-1.248,0.584,-1.272,0.334
0.432,0.189,-2.648,-2.837,1.23,1.513,-2.743,0.732,1.466,1.256,0.118,-1.486,-1.24,0.59,-1.272,0.333
0.433,0.19,-2.646,-2.836,1.228,1.513,-2.741,0.731,1.474,1.266,0.13,-1.478,-1.234,0.598,-1.272,0.329
0.434,0.195,-2.643,-2.838,1.224,1.516,-2.741,0.729,1.483,1.277,0.139,-1.469,-1.232,0.601,-1.27,0.324
0.435,0.196,-2.638,-2.834,1.221,1.515,-2.736,0.726,1.49,1.288,0.146,-1.462,-1.228,0.607,-1.266,0.32
0.436,0.201,-2.633,-2.833,1.216,1.517,-2.733,0.725,1.496,1.296,0.157,-1.455,-1.224,0.612,-1.264,0.315
0.437,0.203,-2.631,-2.835,1.214,1.519,-2.733,0.726,1.504,1.304,0.168,-1.448,-1.218,0.618,-1.266,0.311
0.438,0.207,-2.626,-2.833,1.21,1.52,-2.729,0.722,1.51,1.311,0.178,-1.44,-1.212,0.625,-1.262,0.308
0.439,0.209,-2.621,-2.83,1.206,1.52,-2.725,0.72,1.516,1.321,0.19,-1.431,-1.206,0.631,-1.261,0.304
0.44,0.209,-2.619,-2.829,1.205,1.52,-2.724,0.72,1.523,1.329,0.202,-1.423,-1.2,0.637,-1.261,0.3
0.441,0.212,-2.618,-2.83,1.203,1.521,-2.724,0.719,1.53,1.339,0.212,-1.413,-1.198,0.64,-1.262,0.293
0.442,0.214,-2.614,-2.828,1.2,1.522,-2.72,0.717,1.535,1.349,0.222,-1.405,-1.194,0.646,-1.26,0.288
0.443,0.218,-2.608,-2.826,1.194,1.523,-2.717,0.716,1.541,1.355,0.233,-1.398,-1.187,0.654,-1.257,0.287
0.444,0.224,-2.605,-2.829,1.19,1.526,-2.716,0.713,1.546,1.361,0.243,-1.387,-1.177,0.663,-1.258,0.286
0.445,0.229,-2.602,-2.83,1.186,1.53,-2.716,0.71,1.552,1.367,0.256,-1.377,-1.169,0.67,-1.258,0.282
0.446,0.233,-2.596,-2.829,1.182,1.531,-2.712,0.709,1.558,1.375,0.268,-1.366,-1.163,0.675,-1.256,0.278
0.447,0.238,-2.591,-2.829,1.176,1.534,-2.709,0.707,1.562,1.381,0.277,-1.361,-1.159,0.683,-1.255,0.275
0.448,0.24,-2.587,-2.828,1.173,1.534,-2.708,0.704,1.567,1.389,0.287,-1.353,-1.153,0.689,-1.256,0.273
0.449,0.244,-2.585,-2.829,1.171,1.537,-2.707,0.701,1.571,1.397,0.299,-1.341,-1.146,0.694,-1.256,0.27
0.45,0.251,-2.576,-2.828,1.162,1.539,-2.701,0.699,1.575,1.404,0.31,-1.333,-1.14,0.702,-1.253,0.268
0.451,0.255,-2.568,-2.823,1.157,1.538,-2.695,0.696,1.578,1.41,0.321,-1.323,-1.134,0.708,-1.248,0.266
0.452,0.258,-2.566,-2.824,1.154,1.54,-2.695,0.691,1.581,1.417,0.332,-1.314,-1.129,0.713,-1.247,0.263
0.453,0.262,-2.562,-2.824,1.15,1.542,-2.692,0.688,1.584,1.423,0.343,-1.305,-1.122,0.721,-1.246,0.261
0.454,0.266,-2.558,-2.823,1.146,1.544,-2.69,0.683,1.586,1.431,0.351,-1.298,-1.115,0.729,-1.245,0.257
0.455,0.267,-2.553,-2.82,1.143,1.543,-2.686,0.681,1.59,1.438,0.359,-1.291,-1.111,0.735,-1.242,0.255
0.456,0.268,-2.549,-2.817,1.141,1.542,-2.683,0.677,1.591,1.443,0.367,-1.283,-1.105,0.74,-1.24,0.251
0.457,0.272,-2.545,-2.817,1.137,1.544,-2.68,0.673,1.591,1.448,0.378,-1.274,-1.099,0.748,-1.239,0.248
0.458,0.277,-2.538,-2.814,1.131,1.546,-2.676,0.669,1.594,1.452,0.387,-1.265,-1.093,0.754,-1.237,0.247
0.459,0.28,-2.531,-2.812,1.126,1.546,-2.671,0.667,1.594,1.456,0.395,-1.258,-1.087,0.759,-1.236,0.244
0.46,0.283,-2.53,-2.813,1.123,1.548,-2.671,0.665,1.596,1.462,0.404,-1.249,-1.083,0.764,-1.237,0.243
0.461,0.284,-2.528,-2.812,1.122,1.548,-2.67,0.661,1.599,1.467,0.412,-1.242,-1.076,0.77,-1.237,0.241
0.462,0.288,-2.522,-2.811,1.117,1.55,-2.666,0.657,1.598,1.47,0.42,-1.236,-1.071,0.777,-1.234,0.24
0.463,0.293,-2.516,-2.809,1.111,1.551,-2.663,0.653,1.597,1.474,0.428,-1.226,-1.065,0.784,-1.232,0.235
0.464,0.295,-2.511,-2.807,1.108,1.551,-2.659,0.65,1.597,1.48,0.44,-1.216,-1.057,0.791,-1.232,0.235
0.465,0.299,-2.509,-2.808,1.105,1.553,-2.658,0.648,1.595,1.48,0.449,-1.208,-1.051,0.796,-1.234,0.235
0.466,0.302,-2.506,-2.808,1.101,1.555,-2.656,0.642,1.591,1.478,0.455,-1.202,-1.047,0.8,-1.235,0.233
0.467,0.305,-2.499,-2.804,1.097,1.555,-2.652,0.637,1.587,1.479,0.461,-1.196,-1.044,0.805,-1.229,0.234
0.468,0.307,-2.494,-2.801,1.093,1.554,-2.647,0.632,1.585,1.479,0.467,-1.188,-1.038,0.812,-1.226,0.234
0.469,0.308,-2.493,-2.801,1.092,1.555,-2.647,0.629,1.581,1.48,0.474,-1.182,-1.032,0.816,-1.226,0.233
0.47,0.311,-2.489,-2.8,1.089,1.556,-2.644,0.626,1.576,1.48,0.481,-1.175,-1.026,0.822,-1.222,0.233
0.471,0.315,-2.482,-2.798,1.084,1.556,-2.64,0.621,1.569,1.476,0.486,-1.167,-1.02,0.829,-1.218,0.234
0.472,0.318,-2.478,-2.796,1.081,1.556,-2.636,0.616,1.565,1.472,0.492,-1.16,-1.015,0.833,-1.215,0.237
0.473,0.319,-2.474,-2.792,1.077,1.556,-2.632,0.611,1.557,1.47,0.496,-1.155,-1.011,0.837,-1.212,0.238
0.474,0.321,-2.47,-2.791,1.075,1.556,-2.631,0.606,1.548,1.468,0.499,-1.15,-1.008,0.841,-1.212,0.24
0.475,0.323,-2.465,-2.788,1.071,1.555,-2.626,0.599,1.54,1.466,0.504,-1.143,-1.002,0.847,-1.21,0.24
0.476,0.324,-2.458,-2.783,1.067,1.553,-2.62,0.595,1.53,1.462,0.506,-1.137,-0.998,0.851,-1.208,0.24
0.477,0.327,-2.455,-2.783,1.065,1.554,-2.619,0.588,1.52,1.457,0.512,-1.132,-0.993,0.855,-1.211,0.243
0.478,0.328,-2.451,-2.78,1.062,1.554,-2.615,0.583,1.506,1.45,0.514,-1.125,-0.988,0.859,-1.212,0.245
0.479,0.328,-2.447,-2.775,1.06,1.552,-2.611,0.578,1.494,1.443,0.516,-1.119,-0.984,0.866,-1.214,0.249
0.48,0.331,-2.447,-2.778,1.058,1.554,-2.612,0.571,1.482,1.435,0.518,-1.115,-0.981,0.867,-1.218,0.249
0.481,0.332,-2.446,-2.779,1.057,1.556,-2.612,0.566,1.468,1.428,0.518,-1.113,-0.978,0.869,-1.221,0.253
0.482,0.333,-2.442,-2.775,1.054,1.554,-2.608,0.559,1.454,1.419,0.52,-1.108,-0.973,0.874,-1.22,0.259
0.483,0.335,-2.436,-2.772,1.05,1.554,-2.603,0.553,1.438,1.409,0.52,-1.103,-0.97,0.877,-1.22,0.263
0.484,0.334,-2.433,-2.768,1.05,1.551,-2.6,0.549,1.425,1.399,0.522,-1.098,-0.964,0.882,-1.222,0.269
0.485,0.336,-2.43,-2.766,1.047,1.551,-2.598,0.545,1.409,1.389,0.523,-1.091,-0.958,0.885,-1.223,0.275
0.486,0.339,-2.429,-2.768,1.046,1.553,-2.598,0.539,1.391,1.377,0.523,-1.089,-0.955,0.887,-1.224,0.282
0.487,0.339,-2.428,-2.767,1.044,1.553,-2.597,0.531,1.372,1.363,0.521,-1.089,-0.952,0.889,-1.226,0.287
0.488,0.339,-2.426,-2.765,1.044,1.552,-2.596,0.524,1.351,1.351,0.518,-1.086,-0.95,0.889,-1.226,0.291
0.489,0.339,-2.426,-2.765,1.044,1.552,-2.595,0.517,1.331,1.336,0.515,-1.085,-0.948,0.889,-1.228,0.296
0.49,0.339,-2.42,-2.759,1.04,1.549,-2.589,0.509,1.312,1.322,0.51,-1.085,-0.947,0.891,-1.225,0.305
0.491,0.338,-2.417,-2.756,1.04,1.548,-2.587,0.501,1.29,1.306,0.505,-1.085,-0.946,0.893,-1.224,0.313
0.492,0.337,-2.419,-2.756,1.042,1.546,-2.587,0.495,1.27,1.29,0.5,-1.083,-0.943,0.892,-1.228,0.321
0.493,0.334,-2.42,-2.754,1.043,1.544,-2.587,0.49,1.25,1.274,0.494,-1.085,-0.943,0.89,-1.228,0.328
0.494,0.332,-2.418,-2.751,1.044,1.541,-2.584,0.483,1.226,1.257,0.485,-1.09,-0.945,0.889,-1.228,0.336
0.495,0.329,-2.414,-2.744,1.043,1.536,-2.579,0.476,1.206,1.242,0.474,-1.093,-0.946,0.886,-1.226,0.343
0.496,0.328,-2.412,-2.74,1.042,1.534,-2.576,0.471,1.185,1.225,0.465,-1.099,-0.948,0.884,-1.224,0.349
0.497,0.326,-2.414,-2.74,1.044,1.532,-2.576,0.465,1.163,1.207,0.454,-1.102,-0.946,0.883,-1.226,0.359
0.498,0.321,-2.414,-2.735,1.046,1.528,-2.574,0.462,1.142,1.19,0.443,-1.107,-0.948,0.878,-1.225,0.369
0.499,0.319,-2.412,-2.731,1.046,1.524,-2.571,0.458,1.121,1.171,0.431,-1.113,-0.953,0.874,-1.224,0.378
0.5,0.315,-2.414,-2.729,1.05,1.522,-2.571,0.453,1.099,1.151,0.416,-1.121,-0.958,0.867,-1.225,0.387
0.501,0.31,-2.418,-2.729,1.054,1.52,-2.574,0.45,1.079,1.133,0.4,-1.129,-0.962,0.86,-1.228,0.396
0.502,0.307,-2.419,-2.727,1.056,1.517,-2.572,0.446,1.059,1.115,0.383,-1.139,-0.965,0.855,-1.23,0.402
0.503,0.302,-2.42,-2.723,1.06,1.512,-2.571,0.441,1.036,1.094,0.366,-1.149,-0.972,0.849,-1.228,0.412
0.504,0.295,-2.425,-2.721,1.065,1.508,-2.573,0.439,1.016,1.073,0.35,-1.159,-0.976,0.842,-1.23,0.423
0.505,0.291,-2.429,-2.72,1.069,1.506,-2.575,0.438,0.998,1.052,0.333,-1.169,-0.98,0.835,-1.235,0.433
0.506,0.285,-2.433,-2.719,1.074,1.502,-2.576,0.434,0.978,1.028,0.313,-1.181,-0.987,0.826,-1.236,0.443
0.507,0.278,-2.44,-2.717,1.081,1.498,-2.578,0.433,0.959,1.008,0.292,-1.194,-0.996,0.816,-1.238,0.451
0.508,0.27,-2.446,-2.716,1.088,1.494,-2.581,0.432,0.94,0.986,0.271,-1.21,-1.006,0.804,-1.24,0.46
0.509,0.265,-2.453,-2.717,1.095,1.49,-2.584,0.433,0.92,0.966,0.251,-1.226,-1.014,0.793,-1.242,0.469
0.51,0.258,-2.456,-2.714,1.099,1.486,-2.585,0.432,0.903,0.947,0.231,-1.238,-1.02,0.784,-1.243,0.479
0.511,0.254,-2.459,-2.713,1.103,1.484,-2.586,0.43,0.886,0.926,0.21,-1.251,-1.028,0.775,-1.244,0.487
0.512,0.246,-2.467,-2.713,1.111,1.48,-2.591,0.431,0.869,0.905,0.189,-1.266,-1.038,0.763,-1.248,0.499
0.513,0.237,-2.475,-2.712,1.119,1.475,-2.594,0.433,0.853,0.884,0.168,-1.282,-1.048,0.751,-1.248,0.509
0.514,0.231,-2.482,-2.712,1.125,1.472,-2.596,0.433,0.838,0.867,0.144,-1.299,-1.059,0.739,-1.248,0.517
0.515,0.225,-2.486,-2.712,1.131,1.468,-2.599,0.433,0.821,0.848,0.119,-1.318,-1.073,0.726,-1.247,0.525
0.516,0.221,-2.493,-2.713,1.137,1.467,-2.603,0.433,0.807,0.827,0.098,-1.333,-1.081,0.717,-1.247,0.533
0.517,0.216,-2.499,-2.715,1.142,1.466,-2.607,0.435,0.793,0.807,0.076,-1.349,-1.091,0.705,-1.248,0.541
0.518,0.209,-2.507,-2.716,1.149,1.462,-2.611,0.436,0.778,0.788,0.053,-1.365,-1.103,0.693,-1.248,0.547
0.519,0.201,-2.514,-2.715,1.157,1.458,-2.614,0.437,0.766,0.77,0.031,-1.381,-1.113,0.68,-1.25,0.554
0.52,0.192,-2.525,-2.716,1.167,1.454,-2.62,0.443,0.754,0.755,0.011,-1.397,-1.123,0.666,-1.254,0.562
0.521,0.181,-2.535,-2.717,1.177,1.45,-2.626,0.445,0.745,0.741,-0.011,-1.413,-1.133,0.653,-1.258,0.57
0.522,0.175,-2.542,-2.716,1.183,1.446,-2.628,0.446,0.733,0.723,-0.036,-1.432,-1.144,0.641,-1.26,0.577
0.523,0.169,-2.549,-2.717,1.19,1.443,-2.632,0.449,0.723,0.707,-0.057,-1.446,-1.153,0.63,-1.264,0.583
0.524,0.166,-2.554,-2.72,1.194,1.443,-2.636,0.453,0.713,0.692,-0.075,-1.46,-1.161,0.62,-1.27,0.591
0.525,0.16,-2.563,-2.724,1.202,1.442,-2.643,0.457,0.704,0.674,-0.096,-1.474,-1.171,0.607,-1.276,0.6
0.526,0.149,-2.576,-2.725,1.213,1.437,-2.65,0.461,0.694,0.658,-0.116,-1.49,-1.181,0.594,-1.282,0.606
0.527,0.142,-2.583,-2.727,1.22,1.435,-2.655,0.463,0.683,0.642,-0.137,-1.507,-1.192,0.582,-1.286,0.612
0.528,0.136,-2.593,-2.729,1.228,1.433,-2.661,0.464,0.675,0.627,-0.159,-1.522,-1.203,0.571,-1.29,0.618
0.529,0.132,-2.602,-2.733,1.234,1.433,-2.667,0.467,0.665,0.612,-0.178,-1.538,-1.212,0.559,-1.294,0.624
0.53,0.125,-2.609,-2.734,1.242,1.429,-2.671,0.47,0.656,0.597,-0.2,-1.554,-1.224,0.547,-1.296,0.629
0.531,0.116,-2.618,-2.733,1.25,1.425,-2.675,0.472,0.649,0.582,-0.218,-1.569,-1.234,0.537,-1.298,0.635
0.532,0.111,-2.626,-2.737,1.258,1.423,-2.682,0.476,0.644,0.567,-0.234,-1.582,-1.24,0.528,-1.304,0.641
0.533,0.104,-2.634,-2.739,1.264,1.422,-2.687,0.479,0.637,0.555,-0.252,-1.593,-1.248,0.517,-1.306,0.649
0.534,0.1,-2.64,-2.74,1.27,1.42,-2.691,0.482,0.628,0.543,-0.271,-1.61,-1.26,0.508,-1.307,0.652
0.535,0.096,-2.646,-2.742,1.274,1.419,-2.694,0.487,0.625,0.533,-0.289,-1.623,-1.268,0.497,-1.308,0.652
0.536,0.091,-2.65,-2.741,1.279,1.417,-2.696,0.492,0.62,0.522,-0.305,-1.635,-1.278,0.486,-1.308,0.657
0.537,0.089,-2.656,-2.745,1.284,1.417,-2.701,0.496,0.616,0.51,-0.321,-1.649,-1.286,0.478,-1.31,0.664
0.538,0.084,-2.662,-2.747,1.289,1.415,-2.704,0.499,0.612,0.501,-0.336,-1.66,-1.294,0.469,-1.31,0.669
0.539,0.077,-2.666,-2.744,1.294,1.411,-2.705,0.505,0.608,0.49,-0.352,-1.671,-1.302,0.46,-1.311,0.672
0.54,0.071,-2.676,-2.748,1.302,1.409,-2.712,0.507,0.605,0.479,-0.366,-1.682,-1.31,0.452,-1.315,0.676
0.541,0.066,-2.684,-2.75,1.31,1.407,-2.717,0.51,0.602,0.472,-0.38,-1.694,-1.317,0.442,-1.319,0.678
0.542,0.063,-2.686,-2.749,1.312,1.407,-2.717,0.514,0.598,0.463,-0.394,-1.704,-1.325,0.433,-1.319,0.682
0.543,0.059,-2.693,-2.753,1.317,1.406,-2.723,0.516,0.594,0.454,-0.406,-1.714,-1.331,0.426,-1.319,0.688
0.544,0.053,-2.7,-2.754,1.324,1.403,-2.728,0.521,0.594,0.447,-0.414,-1.722,-1.335,0.418,-1.323,0.691
0.545,0.048,-2.705,-2.754,1.329,1.401,-2.729,0.525,0.592,0.439,-0.422,-1.729,-1.34,0.413,-1.325,0.695
0.546,0.044,-2.713,-2.758,1.335,1.401,-2.736,0.528,0.589,0.432,-0.434,-1.739,-1.345,0.407,-1.329,0.696
0.547,0.038,-2.719,-2.759,1.341,1.399,-2.739,0.53,0.587,0.425,-0.446,-1.748,-1.355,0.398,-1.332,0.698
0.548,0.035,-2.726,-2.761,1.345,1.399,-2.744,0.534,0.585,0.419,-0.456,-1.754,-1.359,0.392,-1.334,0.702
0.549,0.035,-2.733,-2.768,1.349,1.401,-2.751,0.535,0.583,0.414,-0.467,-1.764,-1.363,0.386,-1.337,0.706
0.55,0.032,-2.736,-2.767,1.352,1.399,-2.752,0.536,0.579,0.407,-0.476,-1.77,-1.368,0.382,-1.336,0.708
0.551,0.026,-2.74,-2.767,1.357,1.397,-2.753,0.541,0.578,0.402,-0.483,-1.774,-1.371,0.378,-1.337,0.709
0.552,0.025,-2.744,-2.771,1.359,1.398,-2.757,0.542,0.575,0.397,-0.491,-1.783,-1.378,0.372,-1.338,0.714
0.553,0.022,-2.75,-2.772,1.364,1.397,-2.761,0.546,0.574,0.394,-0.498,-1.788,-1.379,0.369,-1.34,0.716
0.554,0.019,-2.753,-2.772,1.367,1.395,-2.763,0.55,0.574,0.389,-0.506,-1.794,-1.383,0.363,-1.341,0.716
0.555,0.018,-2.754,-2.772,1.368,1.395,-2.764,0.55,0.574,0.385,-0.513,-1.8,-1.389,0.358,-1.34,0.717
0.556,0.015,-2.759,-2.773,1.372,1.394,-2.766,0.553,0.572,0.383,-0.518,-1.804,-1.391,0.354,-1.34,0.718
0.557,0.013,-2.76,-2.775,1.373,1.394,-2.768,0.554,0.569,0.378,-0.524,-1.811,-1.395,0.35,-1.339,0.722
0.558,0.011,-2.763,-2.775,1.375,1.393,-2.768,0.557,0.57,0.376,-0.53,-1.815,-1.4,0.346,-1.338,0.723
0.559,0.011,-2.764,-2.776,1.377,1.393,-2.77,0.56,0.569,0.373,-0.535,-1.817,-1.402,0.344,-1.339,0.723
0.56,0.01,-2.769,-2.78,1.379,1.395,-2.775,0.561,0.567,0.37,-0.54,-1.823,-1.401,0.343,-1.34,0.726
0.561,0.005,-2.773,-2.779,1.385,1.392,-2.776,0.562,0.567,0.367,-0.545,-1.827,-1.405,0.338,-1.338,0.727
0.562,0.003,-2.775,-2.779,1.386,1.391,-2.777,0.563,0.566,0.362,-0.549,-1.831,-1.409,0.335,-1.335,0.728
0.563,0.002,-2.778,-2.78,1.388,1.391,-2.78,0.565,0.565,0.361,-0.555,-1.833,-1.411,0.334,-1.335,0.729
0.564,0.001,-2.78,-2.781,1.39,1.391,-2.78,0.567,0.565,0.359,-0.557,-1.835,-1.412,0.332,-1.337,0.731
0.565,0,-2.782,-2.783,1.391,1.391,-2.782,0.569,0.563,0.356,-0.558,-1.837,-1.413,0.33,-1.339,0.732
0.566,-0.001,-2.786,-2.785,1.393,1.392,-2.785,0.569,0.562,0.354,-0.561,-1.838,-1.413,0.328,-1.343,0.733
0.567,-0.003,-2.788,-2.785,1.395,1.391,-2.786,0.569,0.56,0.352,-0.565,-1.84,-1.415,0.326,-1.343,0.736
0.568,-0.004,-2.789,-2.786,1.397,1.391,-2.787,0.571,0.558,0.35,-0.569,-1.843,-1.417,0.324,-1.347,0.737
0.569,-0.004,-2.792,-2.788,1.398,1.393,-2.79,0.573,0.559,0.349,-0.57,-1.845,-1.418,0.322,-1.352,0.738
0.57,-0.005,-2.791,-2.786,1.397,1.391,-2.788,0.575,0.558,0.345,-0.574,-1.847,-1.42,0.32,-1.352,0.736
0.571,-0.009,-2.79,-2.782,1.399,1.387,-2.785,0.576,0.558,0.342,-0.575,-1.848,-1.421,0.319,-1.355,0.736
0.572,-0.008,-2.792,-2.785,1.401,1.389,-2.788,0.576,0.557,0.339,-0.576,-1.849,-1.422,0.318,-1.359,0.737
0.573,-0.006,-2.795,-2.788,1.401,1.391,-2.791,0.576,0.555,0.337,-0.579,-1.849,-1.423,0.317,-1.359,0.739
0.574,-0.01,-2.797,-2.788,1.403,1.389,-2.792,0.577,0.554,0.335,-0.583,-1.853,-1.424,0.315,-1.361,0.739
0.575,-0.013,-2.799,-2.787,1.405,1.387,-2.792,0.576,0.552,0.333,-0.588,-1.857,-1.428,0.314,-1.359,0.739
0.576,-0.013,-2.799,-2.786,1.406,1.387,-2.792,0.577,0.553,0.335,-0.589,-1.858,-1.429,0.312,-1.36,0.737
0.577,-0.013,-2.8,-2.788,1.407,1.387,-2.794,0.577,0.555,0.334,-0.59,-1.857,-1.429,0.311,-1.363,0.737
0.578,-0.013,-2.798,-2.785,1.406,1.386,-2.792,0.577,0.553,0.332,-0.591,-1.859,-1.429,0.31,-1.36,0.739
0.579,-0.015,-2.797,-2.783,1.406,1.385,-2.789,0.578,0.552,0.33,-0.592,-1.861,-1.43,0.31,-1.359,0.74
0.58,-0.013,-2.801,-2.788,1.407,1.388,-2.794,0.578,0.553,0.329,-0.594,-1.865,-1.433,0.309,-1.36,0.741
0.581,-0.015,-2.804,-2.79,1.409,1.388,-2.796,0.581,0.552,0.329,-0.596,-1.863,-1.43,0.308,-1.363,0.741
0.582,-0.015,-2.804,-2.789,1.409,1.387,-2.796,0.582,0.552,0.327,-0.597,-1.863,-1.431,0.308,-1.36,0.742
0.583,-0.015,-2.802,-2.788,1.408,1.387,-2.795,0.582,0.553,0.327,-0.599,-1.865,-1.433,0.305,-1.357,0.742
0.584,-0.017,-2.804,-2.787,1.41,1.385,-2.795,0.583,0.553,0.327,-0.599,-1.864,-1.431,0.306,-1.359,0.741
0.585,-0.017,-2.807,-2.79,1.412,1.387,-2.797,0.583,0.55,0.325,-0.597,-1.865,-1.431,0.305,-1.361,0.741
0.586,-0.017,-2.808,-2.792,1.413,1.388,-2.8,0.584,0.549,0.325,-0.599,-1.865,-1.431,0.305,-1.361,0.744
0.587,-0.018,-2.809,-2.792,1.413,1.387,-2.8,0.585,0.55,0.324,-0.6,-1.865,-1.431,0.304,-1.361,0.744
0.588,-0.018,-2.809,-2.792,1.413,1.387,-2.8,0.586,0.551,0.326,-0.6,-1.866,-1.433,0.301,-1.362,0.744
0.589,-0.019,-2.81,-2.792,1.415,1.387,-2.8,0.586,0.552,0.325,-0.599,-1.865,-1.433,0.301,-1.363,0.746
0.59,-0.018,-2.807,-2.789,1.412,1.386,-2.797,0.585,0.551,0.323,-0.6,-1.865,-1.431,0.302,-1.36,0.745
0.591,-0.015,-2.805,-2.791,1.411,1.387,-2.797,0.585,0.551,0.322,-0.6,-1.866,-1.433,0.302,-1.357,0.745
0.592,-0.016,-2.808,-2.792,1.412,1.387,-2.799,0.584,0.55,0.321,-0.6,-1.868,-1.433,0.303,-1.357,0.747
0.593,-0.017,-2.808,-2.792,1.413,1.387,-2.8,0.584,0.55,0.319,-0.601,-1.867,-1.431,0.302,-1.359,0.748
0.594,-0.019,-2.809,-2.791,1.414,1.385,-2.799,0.585,0.551,0.319,-0.603,-1.868,-1.433,0.301,-1.357,0.746
0.595,-0.018,-2.806,-2.789,1.412,1.385,-2.797,0.584,0.55,0.318,-0.605,-1.871,-1.437,0.301,-1.353,0.743
0.596,-0.018,-2.805,-2.788,1.412,1.385,-2.796,0.584,0.551,0.318,-0.604,-1.87,-1.437,0.3,-1.353,0.742
0.597,-0.021,-2.806,-2.786,1.413,1.383,-2.796,0.586,0.552,0.321,-0.604,-1.869,-1.435,0.301,-1.353,0.744
0.598,-0.018,-2.804,-2.788,1.411,1.385,-2.795,0.587,0.552,0.322,-0.603,-1.871,-1.436,0.301,-1.355,0.742
0.599,-0.017,-2.804,-2.788,1.41,1.385,-2.795,0.587,0.551,0.32,-0.604,-1.869,-1.435,0.302,-1.354,0.74
0.6,-0.017,-2.805,-2.789,1.411,1.386,-2.796,0.587,0.553,0.321,-0.604,-1.869,-1.435,0.301,-1.353,0.741
0.601,-0.018,-2.806,-2.789,1.411,1.386,-2.797,0.587,0.555,0.323,-0.605,-1.871,-1.438,0.299,-1.355,0.74
0.602,-0.019,-2.805,-2.786,1.413,1.383,-2.795,0.588,0.553,0.324,-0.605,-1.871,-1.437,0.299,-1.355,0.74
0.603,-0.019,-2.805,-2.787,1.413,1.383,-2.796,0.588,0.554,0.325,-0.605,-1.871,-1.437,0.298,-1.353,0.74
0.604,-0.018,-2.804,-2.787,1.411,1.384,-2.795,0.587,0.555,0.324,-0.604,-1.87,-1.437,0.297,-1.353,0.739
0.605,-0.022,-2.808,-2.785,1.415,1.381,-2.796,0.59,0.558,0.325,-0.601,-1.867,-1.435,0.298,-1.353,0.742
0.606,-0.024,-2.809,-2.785,1.417,1.381,-2.796,0.59,0.56,0.327,-0.599,-1.865,-1.433,0.299,-1.353,0.743
0.607,-0.023,-2.808,-2.785,1.415,1.381,-2.796,0.59,0.558,0.327,-0.599,-1.867,-1.435,0.298,-1.353,0.741
0.608,-0.021,-2.808,-2.788,1.415,1.384,-2.798,0.59,0.56,0.328,-0.601,-1.869,-1.434,0.298,-1.353,0.741
0.609,-0.019,-2.809,-2.79,1.414,1.385,-2.799,0.589,0.559,0.328,-0.603,-1.869,-1.435,0.297,-1.351,0.74
0.61,-0.021,-2.808,-2.788,1.414,1.384,-2.798,0.589,0.558,0.327,-0.602,-1.871,-1.435,0.297,-1.348,0.74
0.611,-0.018,-2.805,-2.789,1.411,1.386,-2.796,0.589,0.559,0.325,-0.602,-1.869,-1.433,0.297,-1.345,0.739
0.612,-0.018,-2.808,-2.789,1.413,1.385,-2.798,0.59,0.558,0.324,-0.6,-1.867,-1.432,0.299,-1.347,0.74
0.613,-0.02,-2.809,-2.789,1.414,1.385,-2.799,0.589,0.558,0.323,-0.6,-1.867,-1.432,0.3,-1.351,0.742
0.614,-0.02,-2.808,-2.789,1.414,1.385,-2.798,0.589,0.558,0.324,-0.603,-1.87,-1.435,0.297,-1.355,0.739
0.615,-0.022,-2.808,-2.788,1.415,1.383,-2.797,0.589,0.56,0.326,-0.602,-1.87,-1.435,0.296,-1.358,0.737
0.616,-0.02,-2.807,-2.787,1.413,1.383,-2.796,0.588,0.56,0.326,-0.602,-1.871,-1.434,0.296,-1.357,0.737
0.617,-0.017,-2.805,-2.788,1.411,1.385,-2.796,0.588,0.56,0.327,-0.601,-1.869,-1.433,0.297,-1.359,0.738
0.618,-0.018,-2.804,-2.788,1.411,1.385,-2.796,0.588,0.559,0.328,-0.602,-1.869,-1.433,0.298,-1.36,0.738
0.619,-0.018,-2.807,-2.788,1.413,1.385,-2.796,0.589,0.56,0.328,-0.6,-1.869,-1.433,0.299,-1.359,0.738
0.62,-0.021,-2.808,-2.788,1.415,1.383,-2.797,0.59,0.563,0.33,-0.6,-1.867,-1.433,0.298,-1.361,0.738
0.621,-0.021,-2.808,-2.788,1.415,1.383,-2.798,0.591,0.562,0.331,-0.6,-1.869,-1.434,0.297,-1.361,0.738
0.622,-0.019,-2.808,-2.788,1.413,1.385,-2.797,0.59,0.562,0.331,-0.599,-1.87,-1.433,0.298,-1.362,0.737
0.623,-0.022,-2.805,-2.784,1.413,1.381,-2.794,0.591,0.564,0.332,-0.599,-1.87,-1.433,0.299,-1.361,0.737
0.624,-0.022,-2.805,-2.784,1.413,1.381,-2.794,0.593,0.565,0.33,-0.598,-1.869,-1.433,0.297,-1.36,0.737
0.625,-0.02,-2.808,-2.788,1.413,1.384,-2.797,0.592,0.565,0.329,-0.598,-1.869,-1.434,0.296,-1.361,0.737
0.626,-0.02,-2.808,-2.789,1.414,1.385,-2.799,0.594,0.567,0.331,-0.597,-1.867,-1.43,0.299,-1.361,0.738
0.627,-0.022,-2.808,-2.787,1.415,1.383,-2.796,0.594,0.568,0.331,-0.597,-1.866,-1.431,0.298,-1.359,0.738
0.628,-0.021,-2.807,-2.787,1.414,1.383,-2.796,0.592,0.567,0.333,-0.596,-1.867,-1.431,0.298,-1.359,0.738
0.629,-0.019,-2.805,-2.787,1.412,1.384,-2.796,0.593,0.568,0.332,-0.597,-1.867,-1.429,0.3,-1.358,0.74
0.63,-0.018,-2.801,-2.784,1.41,1.383,-2.792,0.593,0.567,0.331,-0.598,-1.866,-1.432,0.299,-1.355,0.74
0.631,-0.019,-2.8,-2.782,1.409,1.381,-2.791,0.594,0.569,0.331,-0.596,-1.865,-1.431,0.3,-1.355,0.738
0.632,-0.021,-2.802,-2.782,1.411,1.381,-2.792,0.594,0.57,0.331,-0.595,-1.865,-1.43,0.299,-1.355,0.739
0.633,-0.021,-2.803,-2.783,1.412,1.381,-2.792,0.594,0.57,0.332,-0.595,-1.865,-1.429,0.299,-1.357,0.741
0.634,-0.021,-2.801,-2.781,1.411,1.381,-2.791,0.593,0.568,0.333,-0.598,-1.868,-1.431,0.298,-1.355,0.738
0.635,-0.02,-2.801,-2.782,1.411,1.381,-2.792,0.592,0.568,0.336,-0.598,-1.869,-1.435,0.298,-1.353,0.735
0.636,-0.021,-2.801,-2.78,1.411,1.379,-2.791,0.593,0.571,0.337,-0.597,-1.867,-1.433,0.298,-1.354,0.736
0.637,-0.019,-2.799,-2.78,1.409,1.381,-2.789,0.594,0.573,0.338,-0.596,-1.867,-1.431,0.3,-1.354,0.738
0.638,-0.015,-2.797,-2.782,1.406,1.383,-2.789,0.593,0.573,0.339,-0.596,-1.866,-1.431,0.301,-1.351,0.739
0.639,-0.015,-2.794,-2.78,1.405,1.383,-2.787,0.591,0.572,0.337,-0.596,-1.865,-1.432,0.3,-1.351,0.737
0.64,-0.015,-2.799,-2.784,1.407,1.385,-2.791,0.591,0.572,0.336,-0.596,-1.867,-1.433,0.299,-1.355,0.735
0.641,-0.018,-2.803,-2.785,1.411,1.383,-2.793,0.592,0.573,0.34,-0.595,-1.867,-1.432,0.298,-1.355,0.736
0.642,-0.018,-2.803,-2.785,1.41,1.384,-2.793,0.592,0.574,0.342,-0.595,-1.867,-1.433,0.298,-1.353,0.734
0.643,-0.017,-2.801,-2.785,1.409,1.384,-2.792,0.591,0.574,0.341,-0.596,-1.865,-1.433,0.298,-1.355,0.733
0.644,-0.015,-2.799,-2.784,1.407,1.385,-2.791,0.593,0.574,0.342,-0.593,-1.865,-1.432,0.298,-1.355,0.733
0.645,-0.013,-2.798,-2.786,1.405,1.387,-2.792,0.593,0.575,0.34,-0.592,-1.863,-1.429,0.299,-1.355,0.735
0.646,-0.016,-2.799,-2.783,1.407,1.383,-2.79,0.592,0.577,0.341,-0.591,-1.861,-1.429,0.301,-1.353,0.736
0.647,-0.017,-2.801,-2.784,1.409,1.384,-2.792,0.593,0.578,0.341,-0.59,-1.861,-1.429,0.3,-1.355,0.735
0.648,-0.017,-2.803,-2.787,1.409,1.385,-2.794,0.593,0.576,0.34,-0.592,-1.863,-1.429,0.298,-1.358,0.735
0.649,-0.018,-2.805,-2.788,1.412,1.385,-2.796,0.594,0.577,0.342,-0.592,-1.862,-1.429,0.298,-1.359,0.733
0.65,-0.021,-2.804,-2.784,1.412,1.381,-2.793,0.595,0.577,0.341,-0.592,-1.861,-1.429,0.298,-1.355,0.73
0.651,-0.018,-2.798,-2.78,1.407,1.381,-2.788,0.593,0.576,0.34,-0.592,-1.861,-1.429,0.299,-1.353,0.729
0.652,-0.017,-2.8,-2.784,1.409,1.383,-2.792,0.594,0.576,0.338,-0.592,-1.861,-1.429,0.298,-1.355,0.734
0.653,-0.019,-2.801,-2.783,1.41,1.381,-2.792,0.594,0.577,0.339,-0.591,-1.861,-1.427,0.298,-1.357,0.733
0.654,-0.02,-2.799,-2.78,1.409,1.38,-2.788,0.593,0.576,0.34,-0.593,-1.862,-1.429,0.298,-1.354,0.73
0.655,-0.022,-2.799,-2.777,1.411,1.377,-2.788,0.594,0.575,0.341,-0.596,-1.863,-1.431,0.297,-1.351,0.73
0.656,-0.021,-2.796,-2.776,1.408,1.377,-2.785,0.592,0.575,0.34,-0.596,-1.863,-1.43,0.298,-1.351,0.729
0.657,-0.019,-2.796,-2.776,1.407,1.379,-2.785,0.591,0.574,0.34,-0.596,-1.863,-1.432,0.296,-1.35,0.729
0.658,-0.021,-2.795,-2.775,1.407,1.377,-2.784,0.592,0.574,0.339,-0.597,-1.865,-1.434,0.295,-1.348,0.727
0.659,-0.022,-2.796,-2.773,1.409,1.375,-2.784,0.592,0.576,0.339,-0.596,-1.865,-1.43,0.297,-1.349,0.726
0.66,-0.025,-2.8,-2.776,1.411,1.375,-2.787,0.593,0.575,0.341,-0.597,-1.863,-1.429,0.297,-1.351,0.727
0.661,-0.022,-2.8,-2.779,1.411,1.379,-2.788,0.591,0.574,0.342,-0.598,-1.865,-1.431,0.296,-1.352,0.727
0.662,-0.02,-2.797,-2.777,1.409,1.379,-2.787,0.59,0.575,0.343,-0.598,-1.864,-1.433,0.296,-1.349,0.725
0.663,-0.019,-2.795,-2.776,1.407,1.379,-2.785,0.591,0.574,0.342,-0.599,-1.865,-1.431,0.297,-1.349,0.725
0.664,-0.017,-2.795,-2.779,1.405,1.381,-2.787,0.593,0.575,0.342,-0.597,-1.863,-1.427,0.299,-1.351,0.727
0.665,-0.016,-2.795,-2.779,1.405,1.381,-2.787,0.594,0.576,0.342,-0.595,-1.861,-1.425,0.299,-1.353,0.728
0.666,-0.017,-2.795,-2.778,1.405,1.381,-2.786,0.593,0.573,0.342,-0.595,-1.861,-1.425,0.298,-1.352,0.729
0.667,-0.018,-2.795,-2.777,1.407,1.379,-2.785,0.592,0.574,0.342,-0.595,-1.861,-1.426,0.298,-1.349,0.73
0.668,-0.021,-2.796,-2.776,1.409,1.378,-2.786,0.592,0.572,0.34,-0.596,-1.861,-1.427,0.298,-1.351,0.729
0.669,-0.02,-2.8,-2.78,1.409,1.38,-2.789,0.593,0.573,0.341,-0.596,-1.861,-1.427,0.298,-1.353,0.731
0.67,-0.018,-2.796,-2.778,1.407,1.381,-2.787,0.592,0.573,0.341,-0.596,-1.862,-1.427,0.298,-1.35,0.731
0.671,-0.018,-2.792,-2.775,1.405,1.378,-2.783,0.591,0.573,0.339,-0.595,-1.861,-1.425,0.299,-1.348,0.731
0.672,-0.018,-2.795,-2.776,1.407,1.379,-2.785,0.591,0.573,0.338,-0.596,-1.861,-1.425,0.298,-1.349,0.732
0.673,-0.017,-2.795,-2.779,1.405,1.381,-2.787,0.59,0.57,0.336,-0.598,-1.863,-1.427,0.298,-1.349,0.733
0.674,-0.015,-2.791,-2.776,1.403,1.381,-2.783,0.589,0.571,0.336,-0.6,-1.863,-1.427,0.299,-1.349,0.731
0.675,-0.015,-2.787,-2.772,1.401,1.378,-2.78,0.59,0.57,0.335,-0.601,-1.865,-1.429,0.298,-1.345,0.731
0.676,-0.017,-2.79,-2.773,1.403,1.379,-2.781,0.589,0.571,0.337,-0.603,-1.865,-1.429,0.298,-1.345,0.73
0.677,-0.016,-2.792,-2.776,1.404,1.379,-2.783,0.589,0.572,0.337,-0.602,-1.863,-1.426,0.299,-1.349,0.73
0.678,-0.013,-2.787,-2.774,1.401,1.38,-2.78,0.587,0.57,0.337,-0.602,-1.863,-1.427,0.299,-1.345,0.732
0.679,-0.013,-2.784,-2.772,1.399,1.379,-2.778,0.585,0.57,0.335,-0.603,-1.865,-1.427,0.299,-1.342,0.731
0.68,-0.013,-2.787,-2.774,1.401,1.38,-2.78,0.587,0.57,0.334,-0.601,-1.863,-1.425,0.3,-1.345,0.732
0.681,-0.015,-2.789,-2.775,1.403,1.38,-2.782,0.588,0.571,0.338,-0.603,-1.863,-1.425,0.299,-1.346,0.731
0.682,-0.017,-2.788,-2.772,1.403,1.378,-2.78,0.588,0.572,0.335,-0.604,-1.864,-1.425,0.298,-1.343,0.73
0.683,-0.017,-2.788,-2.771,1.402,1.377,-2.78,0.588,0.572,0.335,-0.603,-1.861,-1.423,0.3,-1.341,0.731
0.684,-0.017,-2.788,-2.772,1.402,1.378,-2.78,0.588,0.57,0.335,-0.603,-1.861,-1.423,0.3,-1.343,0.733
0.685,-0.013,-2.789,-2.776,1.401,1.381,-2.783,0.588,0.567,0.332,-0.602,-1.861,-1.423,0.299,-1.345,0.736
0.686,-0.013,-2.79,-2.777,1.401,1.383,-2.784,0.589,0.568,0.332,-0.6,-1.858,-1.421,0.3,-1.347,0.735
0.687,-0.015,-2.791,-2.776,1.403,1.381,-2.783,0.588,0.568,0.331,-0.602,-1.859,-1.421,0.3,-1.347,0.734
0.688,-0.016,-2.792,-2.777,1.404,1.381,-2.784,0.588,0.566,0.33,-0.603,-1.859,-1.419,0.3,-1.352,0.733
0.689,-0.017,-2.794,-2.778,1.405,1.381,-2.785,0.588,0.566,0.33,-0.603,-1.861,-1.421,0.299,-1.353,0.733
0.69,-0.017,-2.792,-2.776,1.404,1.379,-2.783,0.587,0.564,0.33,-0.606,-1.863,-1.423,0.298,-1.351,0.733
0.691,-0.015,-2.789,-2.775,1.402,1.379,-2.781,0.587,0.562,0.329,-0.606,-1.861,-1.421,0.3,-1.349,0.734
0.692,-0.013,-2.791,-2.778,1.402,1.383,-2.784,0.586,0.561,0.328,-0.605,-1.861,-1.42,0.301,-1.353,0.736
0.693,-0.015,-2.791,-2.776,1.403,1.381,-2.784,0.585,0.562,0.326,-0.607,-1.861,-1.42,0.3,-1.353,0.737
0.694,-0.018,-2.792,-2.774,1.405,1.378,-2.783,0.585,0.561,0.329,-0.608,-1.861,-1.42,0.299,-1.351,0.736
0.695,-0.018,-2.791,-2.772,1.405,1.377,-2.781,0.584,0.56,0.33,-0.609,-1.864,-1.423,0.297,-1.353,0.732
0.696,-0.015,-2.788,-2.773,1.401,1.379,-2.78,0.584,0.56,0.329,-0.608,-1.861,-1.421,0.3,-1.349,0.733
0.697,-0.013,-2.788,-2.776,1.401,1.381,-2.781,0.583,0.558,0.327,-0.609,-1.863,-1.421,0.3,-1.349,0.738
0.698,-0.015,-2.788,-2.773,1.401,1.379,-2.78,0.583,0.557,0.325,-0.61,-1.865,-1.425,0.297,-1.349,0.737
0.699,-0.017,-2.788,-2.772,1.403,1.377,-2.78,0.582,0.557,0.325,-0.611,-1.863,-1.421,0.3,-1.35,0.736
0.7,-0.017,-2.792,-2.776,1.405,1.379,-2.784,0.583,0.556,0.323,-0.612,-1.864,-1.423,0.297,-1.353,0.736
0.701,-0.017,-2.792,-2.776,1.405,1.38,-2.784,0.583,0.555,0.324,-0.613,-1.866,-1.425,0.295,-1.353,0.734
0.702,-0.013,-2.789,-2.777,1.401,1.382,-2.783,0.583,0.554,0.325,-0.615,-1.866,-1.423,0.298,-1.351,0.735
0.703,-0.011,-2.791,-2.78,1.401,1.385,-2.785,0.583,0.553,0.324,-0.615,-1.865,-1.423,0.298,-1.351,0.737
0.704,-0.015,-2.791,-2.776,1.403,1.38,-2.783,0.585,0.553,0.323,-0.613,-1.863,-1.422,0.297,-1.353,0.737
0.705,-0.015,-2.791,-2.776,1.403,1.381,-2.784,0.585,0.554,0.321,-0.611,-1.863,-1.419,0.297,-1.355,0.736
0.706,-0.013,-2.792,-2.78,1.402,1.383,-2.785,0.584,0.553,0.319,-0.613,-1.861,-1.418,0.298,-1.355,0.739
0.707,-0.013,-2.789,-2.777,1.401,1.382,-2.783,0.584,0.551,0.32,-0.613,-1.861,-1.417,0.299,-1.355,0.74
0.708,-0.013,-2.791,-2.779,1.401,1.383,-2.784,0.584,0.55,0.32,-0.613,-1.861,-1.418,0.297,-1.355,0.741
0.709,-0.013,-2.792,-2.779,1.403,1.383,-2.785,0.585,0.55,0.319,-0.614,-1.861,-1.417,0.296,-1.357,0.742
0.71,-0.013,-2.788,-2.776,1.401,1.381,-2.782,0.584,0.547,0.316,-0.615,-1.863,-1.419,0.296,-1.354,0.741
0.711,-0.012,-2.786,-2.775,1.399,1.381,-2.78,0.584,0.547,0.314,-0.617,-1.862,-1.417,0.297,-1.353,0.743
0.712,-0.011,-2.788,-2.776,1.399,1.382,-2.781,0.582,0.546,0.314,-0.616,-1.862,-1.417,0.298,-1.355,0.743
0.713,-0.011,-2.788,-2.778,1.4,1.383,-2.783,0.582,0.542,0.312,-0.617,-1.863,-1.419,0.295,-1.355,0.743
0.714,-0.015,-2.788,-2.775,1.401,1.38,-2.781,0.581,0.541,0.311,-0.62,-1.865,-1.419,0.296,-1.353,0.742
0.715,-0.017,-2.788,-2.772,1.402,1.377,-2.78,0.58,0.542,0.309,-0.623,-1.867,-1.418,0.296,-1.349,0.742
0.716,-0.015,-2.788,-2.773,1.401,1.379,-2.78,0.579,0.541,0.306,-0.622,-1.868,-1.419,0.295,-1.349,0.742
0.717,-0.013,-2.788,-2.775,1.401,1.381,-2.781,0.579,0.539,0.306,-0.623,-1.869,-1.42,0.295,-1.349,0.739
0.718,-0.015,-2.788,-2.772,1.401,1.379,-2.78,0.581,0.54,0.306,-0.625,-1.867,-1.42,0.293,-1.348,0.74
0.719,-0.017,-2.788,-2.772,1.402,1.377,-2.78,0.578,0.537,0.303,-0.625,-1.869,-1.42,0.294,-1.347,0.742
0.72,-0.017,-2.792,-2.776,1.405,1.379,-2.784,0.58,0.538,0.302,-0.625,-1.869,-1.419,0.294,-1.349,0.742
0.721,-0.016,-2.793,-2.777,1.405,1.381,-2.785,0.581,0.538,0.302,-0.626,-1.869,-1.419,0.294,-1.351,0.741
0.722,-0.016,-2.791,-2.775,1.403,1.379,-2.783,0.578,0.536,0.301,-0.63,-1.869,-1.422,0.295,-1.348,0.742
0.723,-0.017,-2.792,-2.776,1.404,1.379,-2.783,0.576,0.533,0.302,-0.631,-1.871,-1.423,0.295,-1.349,0.743
0.724,-0.017,-2.792,-2.776,1.404,1.379,-2.783,0.577,0.531,0.299,-0.63,-1.87,-1.423,0.293,-1.351,0.744
0.725,-0.015,-2.793,-2.777,1.404,1.381,-2.785,0.579,0.532,0.297,-0.629,-1.869,-1.42,0.292,-1.353,0.746
0.726,-0.017,-2.795,-2.779,1.405,1.381,-2.787,0.578,0.532,0.296,-0.629,-1.869,-1.419,0.291,-1.354,0.745
0.727,-0.02,-2.793,-2.774,1.407,1.377,-2.783,0.579,0.531,0.296,-0.629,-1.869,-1.421,0.29,-1.351,0.748
0.728,-0.018,-2.793,-2.775,1.405,1.379,-2.784,0.579,0.53,0.295,-0.63,-1.869,-1.421,0.291,-1.353,0.749
0.729,-0.016,-2.796,-2.78,1.406,1.382,-2.787,0.578,0.531,0.294,-0.631,-1.868,-1.418,0.292,-1.352,0.75
0.73,-0.018,-2.792,-2.775,1.405,1.379,-2.784,0.579,0.528,0.293,-0.631,-1.869,-1.419,0.291,-1.349,0.749
0.731,-0.018,-2.788,-2.771,1.403,1.377,-2.78,0.577,0.528,0.289,-0.631,-1.869,-1.42,0.291,-1.347,0.749
0.732,-0.021,-2.793,-2.773,1.407,1.376,-2.783,0.575,0.527,0.288,-0.632,-1.868,-1.419,0.291,-1.347,0.751
0.733,-0.022,-2.794,-2.772,1.408,1.375,-2.783,0.575,0.526,0.285,-0.634,-1.87,-1.421,0.289,-1.349,0.75
0.734,-0.02,-2.792,-2.772,1.406,1.377,-2.782,0.575,0.525,0.286,-0.636,-1.871,-1.421,0.289,-1.347,0.75
0.735,-0.02,-2.792,-2.772,1.406,1.376,-2.781,0.576,0.524,0.286,-0.638,-1.872,-1.422,0.289,-1.349,0.749
0.736,-0.018,-2.791,-2.774,1.405,1.378,-2.783,0.574,0.523,0.285,-0.641,-1.873,-1.423,0.289,-1.351,0.749
0.737,-0.017,-2.792,-2.775,1.405,1.379,-2.783,0.573,0.52,0.285,-0.64,-1.875,-1.423,0.288,-1.351,0.75
0.738,-0.019,-2.791,-2.772,1.405,1.376,-2.781,0.573,0.521,0.282,-0.641,-1.873,-1.422,0.289,-1.351,0.751
0.739,-0.018,-2.791,-2.772,1.405,1.377,-2.781,0.572,0.521,0.281,-0.641,-1.873,-1.419,0.292,-1.355,0.75
0.74,-0.021,-2.793,-2.773,1.407,1.377,-2.783,0.572,0.52,0.282,-0.644,-1.876,-1.423,0.288,-1.361,0.75
0.741,-0.024,-2.797,-2.775,1.411,1.375,-2.785,0.572,0.52,0.281,-0.645,-1.877,-1.423,0.288,-1.365,0.751
0.742,-0.024,-2.798,-2.776,1.411,1.376,-2.787,0.573,0.518,0.28,-0.646,-1.878,-1.423,0.288,-1.366,0.75
0.743,-0.021,-2.798,-2.777,1.409,1.379,-2.787,0.572,0.518,0.281,-0.646,-1.878,-1.425,0.287,-1.364,0.75
0.744,-0.019,-2.798,-2.78,1.409,1.381,-2.788,0.571,0.517,0.279,-0.644,-1.877,-1.423,0.288,-1.367,0.75
0.745,-0.017,-2.798,-2.782,1.407,1.383,-2.789,0.572,0.519,0.279,-0.645,-1.875,-1.421,0.288,-1.367,0.753
0.746,-0.015,-2.797,-2.782,1.406,1.383,-2.788,0.573,0.519,0.279,-0.644,-1.875,-1.42,0.288,-1.367,0.753
0.747,-0.018,-2.797,-2.78,1.408,1.381,-2.788,0.571,0.518,0.277,-0.646,-1.877,-1.421,0.288,-1.365,0.754
0.748,-0.02,-2.799,-2.779,1.409,1.379,-2.788,0.571,0.518,0.278,-0.648,-1.876,-1.422,0.287,-1.363,0.756
0.749,-0.021,-2.801,-2.781,1.411,1.38,-2.79,0.572,0.518,0.275,-0.648,-1.877,-1.421,0.286,-1.365,0.754
0.75,-0.02,-2.797,-2.779,1.409,1.379,-2.788,0.571,0.517,0.274,-0.648,-1.879,-1.421,0.286,-1.361,0.754
0.751,-0.021,-2.795,-2.775,1.408,1.377,-2.784,0.571,0.515,0.274,-0.648,-1.877,-1.42,0.287,-1.359,0.754
0.752,-0.024,-2.8,-2.776,1.411,1.376,-2.788,0.571,0.515,0.272,-0.647,-1.876,-1.418,0.287,-1.363,0.754
0.753,-0.025,-2.801,-2.776,1.413,1.376,-2.788,0.57,0.514,0.272,-0.649,-1.877,-1.419,0.288,-1.364,0.758
0.754,-0.027,-2.803,-2.776,1.415,1.375,-2.788,0.57,0.513,0.272,-0.651,-1.879,-1.421,0.285,-1.363,0.757
0.755,-0.026,-2.8,-2.773,1.413,1.374,-2.786,0.569,0.513,0.273,-0.652,-1.879,-1.423,0.284,-1.359,0.756
0.756,-0.025,-2.796,-2.772,1.41,1.374,-2.783,0.569,0.514,0.273,-0.654,-1.879,-1.423,0.284,-1.359,0.755
0.757,-0.022,-2.795,-2.773,1.409,1.375,-2.784,0.57,0.514,0.274,-0.653,-1.878,-1.421,0.286,-1.359,0.754
0.758,-0.02,-2.792,-2.773,1.406,1.377,-2.783,0.57,0.512,0.272,-0.653,-1.879,-1.422,0.286,-1.357,0.755
0.759,-0.021,-2.791,-2.77,1.406,1.375,-2.78,0.57,0.513,0.272,-0.653,-1.879,-1.421,0.285,-1.355,0.757
0.76,-0.024,-2.791,-2.768,1.407,1.373,-2.78,0.57,0.512,0.27,-0.654,-1.879,-1.421,0.285,-1.356,0.759
0.761,-0.025,-2.796,-2.772,1.411,1.373,-2.784,0.569,0.51,0.269,-0.659,-1.881,-1.423,0.283,-1.361,0.756
0.762,-0.028,-2.798,-2.771,1.413,1.372,-2.784,0.57,0.511,0.269,-0.66,-1.883,-1.424,0.283,-1.357,0.756
0.763,-0.026,-2.795,-2.769,1.411,1.371,-2.782,0.569,0.51,0.269,-0.658,-1.882,-1.425,0.284,-1.355,0.758
0.764,-0.024,-2.796,-2.773,1.409,1.375,-2.784,0.568,0.508,0.267,-0.657,-1.883,-1.424,0.284,-1.359,0.758
0.765,-0.025,-2.798,-2.773,1.411,1.374,-2.785,0.569,0.507,0.265,-0.656,-1.882,-1.422,0.283,-1.361,0.759
0.766,-0.026,-2.799,-2.772,1.413,1.373,-2.785,0.568,0.507,0.264,-0.656,-1.881,-1.421,0.282,-1.361,0.76
0.767,-0.027,-2.797,-2.771,1.413,1.372,-2.784,0.568,0.507,0.262,-0.658,-1.881,-1.423,0.282,-1.359,0.758
0.768,-0.026,-2.799,-2.773,1.413,1.373,-2.786,0.568,0.506,0.263,-0.658,-1.881,-1.421,0.282,-1.362,0.76
0.769,-0.024,-2.8,-2.777,1.412,1.377,-2.788,0.567,0.508,0.263,-0.659,-1.881,-1.421,0.281,-1.363,0.765
0.77,-0.024,-2.797,-2.774,1.41,1.375,-2.785,0.568,0.505,0.262,-0.66,-1.882,-1.423,0.282,-1.359,0.764
0.771,-0.023,-2.796,-2.773,1.409,1.375,-2.784,0.567,0.504,0.258,-0.658,-1.883,-1.423,0.281,-1.359,0.762
0.772,-0.024,-2.798,-2.775,1.411,1.376,-2.787,0.565,0.505,0.259,-0.657,-1.883,-1.422,0.281,-1.359,0.764
0.773,-0.024,-2.798,-2.775,1.411,1.376,-2.786,0.566,0.504,0.259,-0.659,-1.882,-1.421,0.281,-1.36,0.764
0.774,-0.025,-2.799,-2.775,1.411,1.375,-2.786,0.566,0.503,0.258,-0.662,-1.884,-1.424,0.279,-1.359,0.762
0.775,-0.025,-2.798,-2.773,1.411,1.375,-2.785,0.565,0.502,0.258,-0.663,-1.885,-1.425,0.28,-1.357,0.759
0.776,-0.025,-2.796,-2.772,1.411,1.373,-2.784,0.566,0.5,0.255,-0.664,-1.887,-1.425,0.281,-1.355,0.759
0.777,-0.025,-2.797,-2.773,1.411,1.375,-2.785,0.564,0.498,0.254,-0.665,-1.887,-1.425,0.28,-1.355,0.76
0.778,-0.023,-2.796,-2.773,1.409,1.375,-2.784,0.561,0.498,0.254,-0.665,-1.887,-1.426,0.28,-1.353,0.759
0.779,-0.025,-2.795,-2.771,1.409,1.373,-2.782,0.565,0.498,0.255,-0.664,-1.887,-1.424,0.281,-1.351,0.759
0.78,-0.021,-2.795,-2.775,1.408,1.377,-2.784,0.567,0.5,0.257,-0.663,-1.885,-1.423,0.281,-1.354,0.76
0.781,-0.021,-2.792,-2.773,1.407,1.377,-2.783,0.566,0.499,0.258,-0.664,-1.887,-1.423,0.279,-1.353,0.761
0.782,-0.02,-2.791,-2.772,1.405,1.375,-2.781,0.567,0.498,0.258,-0.664,-1.886,-1.424,0.279,-1.353,0.76
0.783,-0.02,-2.792,-2.772,1.406,1.377,-2.782,0.567,0.499,0.257,-0.665,-1.885,-1.424,0.279,-1.354,0.76
0.784,-0.02,-2.796,-2.776,1.407,1.378,-2.785,0.567,0.497,0.256,-0.665,-1.885,-1.424,0.278,-1.357,0.761
0.785,-0.02,-2.795,-2.776,1.407,1.378,-2.785,0.568,0.497,0.255,-0.663,-1.884,-1.423,0.279,-1.361,0.762
0.786,-0.024,-2.795,-2.772,1.409,1.375,-2.783,0.568,0.498,0.255,-0.663,-1.883,-1.421,0.279,-1.362,0.763
0.787,-0.024,-2.796,-2.773,1.41,1.375,-2.784,0.568,0.496,0.253,-0.665,-1.884,-1.423,0.277,-1.363,0.762
0.788,-0.024,-2.797,-2.774,1.411,1.375,-2.785,0.565,0.495,0.251,-0.666,-1.886,-1.422,0.278,-1.365,0.764
0.789,-0.022,-2.799,-2.777,1.41,1.377,-2.787,0.565,0.495,0.25,-0.665,-1.885,-1.422,0.278,-1.365,0.763
0.79,-0.021,-2.796,-2.775,1.408,1.377,-2.785,0.564,0.494,0.248,-0.666,-1.885,-1.425,0.277,-1.363,0.764
0.791,-0.021,-2.793,-2.773,1.407,1.376,-2.783,0.566,0.495,0.248,-0.667,-1.885,-1.422,0.279,-1.36,0.766
0.792,-0.021,-2.797,-2.777,1.409,1.379,-2.787,0.566,0.494,0.249,-0.666,-1.883,-1.422,0.278,-1.363,0.768
0.793,-0.02,-2.798,-2.779,1.409,1.379,-2.788,0.564,0.494,0.248,-0.665,-1.883,-1.423,0.278,-1.365,0.766
0.794,-0.02,-2.795,-2.776,1.407,1.378,-2.785,0.564,0.494,0.247,-0.667,-1.885,-1.422,0.278,-1.364,0.762
0.795,-0.021,-2.792,-2.772,1.407,1.376,-2.782,0.562,0.494,0.247,-0.67,-1.885,-1.425,0.276,-1.361,0.762
0.796,-0.022,-2.792,-2.771,1.407,1.375,-2.782,0.563,0.492,0.247,-0.67,-1.887,-1.425,0.277,-1.36,0.762
0.797,-0.023,-2.792,-2.769,1.407,1.373,-2.781,0.564,0.491,0.248,-0.67,-1.889,-1.424,0.278,-1.36,0.764
0.798,-0.024,-2.792,-2.769,1.407,1.373,-2.78,0.562,0.491,0.247,-0.67,-1.887,-1.425,0.276,-1.359,0.764
0.799,-0.022,-2.791,-2.769,1.407,1.373,-2.78,0.562,0.493,0.248,-0.669,-1.885,-1.423,0.277,-1.36,0.763
0.8,-0.023,-2.795,-2.772,1.409,1.375,-2.784,0.564,0.494,0.248,-0.669,-1.885,-1.424,0.276,-1.361,0.764
0.801,-0.023,-2.796,-2.773,1.409,1.375,-2.784,0.563,0.492,0.248,-0.671,-1.887,-1.427,0.274,-1.361,0.762
0.802,-0.024,-2.793,-2.771,1.409,1.373,-2.782,0.565,0.494,0.249,-0.672,-1.887,-1.427,0.274,-1.361,0.76
0.803,-0.022,-2.794,-2.772,1.408,1.375,-2.783,0.565,0.494,0.249,-0.672,-1.885,-1.426,0.275,-1.363,0.763
0.804,-0.017,-2.792,-2.776,1.405,1.379,-2.783,0.564,0.491,0.247,-0.671,-1.886,-1.424,0.276,-1.361,0.765
0.805,-0.018,-2.792,-2.775,1.405,1.379,-2.783,0.566,0.491,0.244,-0.67,-1.886,-1.423,0.275,-1.363,0.765
0.806,-0.02,-2.795,-2.775,1.407,1.377,-2.784,0.567,0.492,0.245,-0.669,-1.884,-1.423,0.276,-1.362,0.765
0.807,-0.021,-2.796,-2.776,1.408,1.378,-2.785,0.567,0.492,0.245,-0.67,-1.885,-1.424,0.275,-1.36,0.766
0.808,-0.023,-2.798,-2.776,1.411,1.376,-2.787,0.567,0.492,0.244,-0.671,-1.886,-1.426,0.273,-1.361,0.765
0.809,-0.022,-2.8,-2.777,1.411,1.377,-2.788,0.568,0.494,0.247,-0.668,-1.885,-1.423,0.274,-1.362,0.766
0.81,-0.021,-2.796,-2.776,1.409,1.377,-2.785,0.568,0.495,0.246,-0.669,-1.885,-1.423,0.274,-1.359,0.766
0.811,-0.024,-2.795,-2.772,1.409,1.375,-2.784,0.566,0.491,0.243,-0.669,-1.885,-1.425,0.273,-1.355,0.765
0.812,-0.023,-2.797,-2.775,1.41,1.376,-2.785,0.567,0.493,0.241,-0.668,-1.884,-1.423,0.274,-1.357,0.766
0.813,-0.021,-2.796,-2.776,1.408,1.377,-2.784,0.566,0.493,0.24,-0.67,-1.883,-1.421,0.276,-1.357,0.766
0.814,-0.023,-2.795,-2.772,1.409,1.375,-2.783,0.565,0.493,0.242,-0.672,-1.885,-1.423,0.275,-1.357,0.764
0.815,-0.025,-2.797,-2.772,1.411,1.373,-2.784,0.564,0.493,0.243,-0.673,-1.885,-1.425,0.274,-1.357,0.763
0.816,-0.024,-2.796,-2.773,1.41,1.375,-2.784,0.561,0.493,0.243,-0.674,-1.887,-1.423,0.274,-1.357,0.764
0.817,-0.023,-2.794,-2.772,1.409,1.375,-2.783,0.562,0.494,0.242,-0.674,-1.887,-1.423,0.274,-1.357,0.764
0.818,-0.025,-2.795,-2.771,1.409,1.373,-2.783,0.565,0.492,0.242,-0.672,-1.885,-1.422,0.275,-1.357,0.766
0.819,-0.026,-2.795,-2.768,1.411,1.371,-2.781,0.566,0.494,0.243,-0.671,-1.883,-1.421,0.274,-1.357,0.768
0.82,-0.026,-2.797,-2.772,1.412,1.373,-2.784,0.567,0.493,0.243,-0.672,-1.885,-1.421,0.275,-1.361,0.767
0.821,-0.027,-2.798,-2.772,1.413,1.373,-2.784,0.566,0.494,0.245,-0.674,-1.885,-1.421,0.275,-1.364,0.767
0.822,-0.026,-2.796,-2.77,1.411,1.372,-2.783,0.566,0.495,0.245,-0.674,-1.886,-1.421,0.274,-1.363,0.765
0.823,-0.024,-2.796,-2.772,1.409,1.375,-2.784,0.565,0.492,0.243,-0.675,-1.887,-1.423,0.275,-1.363,0.767
0.824,-0.024,-2.797,-2.774,1.41,1.375,-2.785,0.566,0.493,0.244,-0.675,-1.885,-1.421,0.274,-1.363,0.77
0.825,-0.024,-2.798,-2.775,1.411,1.375,-2.786,0.566,0.493,0.243,-0.673,-1.883,-1.419,0.273,-1.367,0.77
0.826,-0.021,-2.8,-2.779,1.411,1.379,-2.788,0.565,0.493,0.242,-0.674,-1.885,-1.42,0.273,-1.366,0.769
0.827,-0.02,-2.799,-2.779,1.409,1.379,-2.788,0.564,0.491,0.242,-0.674,-1.887,-1.421,0.273,-1.365,0.767
0.828,-0.022,-2.8,-2.778,1.411,1.378,-2.788,0.565,0.493,0.244,-0.672,-1.885,-1.421,0.272,-1.368,0.768
0.829,-0.023,-2.802,-2.78,1.413,1.379,-2.79,0.564,0.492,0.244,-0.673,-1.885,-1.421,0.272,-1.368,0.769
0.83,-0.021,-2.8,-2.779,1.411,1.379,-2.789,0.562,0.49,0.243,-0.674,-1.885,-1.421,0.273,-1.366,0.768
0.831,-0.022,-2.8,-2.779,1.411,1.379,-2.788,0.564,0.492,0.243,-0.672,-1.885,-1.421,0.272,-1.366,0.766
0.832,-0.021,-2.799,-2.778,1.41,1.379,-2.788,0.562,0.492,0.243,-0.674,-1.885,-1.421,0.273,-1.365,0.77
0.833,-0.023,-2.8,-2.777,1.411,1.377,-2.788,0.562,0.49,0.242,-0.674,-1.886,-1.421,0.273,-1.365,0.77
0.834,-0.024,-2.802,-2.779,1.413,1.377,-2.789,0.563,0.489,0.242,-0.675,-1.888,-1.421,0.273,-1.367,0.769
0.835,-0.023,-2.799,-2.776,1.411,1.377,-2.787,0.561,0.489,0.243,-0.677,-1.889,-1.423,0.273,-1.364,0.769
0.836,-0.024,-2.798,-2.774,1.411,1.375,-2.785,0.561,0.489,0.242,-0.678,-1.889,-1.422,0.274,-1.36,0.769
0.837,-0.024,-2.799,-2.776,1.411,1.376,-2.787,0.561,0.489,0.24,-0.678,-1.889,-1.421,0.274,-1.361,0.772
0.838,-0.023,-2.796,-2.774,1.409,1.375,-2.784,0.56,0.488,0.241,-0.677,-1.889,-1.423,0.274,-1.36,0.77
0.839,-0.024,-2.796,-2.772,1.409,1.375,-2.784,0.561,0.489,0.242,-0.678,-1.889,-1.422,0.274,-1.362,0.77
0.84,-0.024,-2.799,-2.776,1.411,1.376,-2.787,0.56,0.488,0.24,-0.678,-1.889,-1.423,0.273,-1.365,0.768
0.841,-0.024,-2.799,-2.776,1.411,1.377,-2.787,0.559,0.488,0.242,-0.677,-1.889,-1.425,0.271,-1.365,0.769
0.842,-0.023,-2.799,-2.776,1.411,1.377,-2.787,0.561,0.491,0.244,-0.678,-1.889,-1.423,0.273,-1.363,0.769
0.843,-0.023,-2.798,-2.776,1.411,1.377,-2.787,0.559,0.491,0.243,-0.679,-1.889,-1.425,0.272,-1.361,0.767
0.844,-0.024,-2.799,-2.776,1.411,1.377,-2.787,0.562,0.493,0.243,-0.677,-1.888,-1.423,0.271,-1.362,0.767
0.845,-0.023,-2.797,-2.775,1.41,1.376,-2.785,0.563,0.492,0.243,-0.675,-1.885,-1.419,0.274,-1.361,0.769
0.846,-0.021,-2.796,-2.776,1.409,1.377,-2.785,0.561,0.49,0.242,-0.676,-1.886,-1.421,0.272,-1.359,0.77
0.847,-0.021,-2.799,-2.777,1.41,1.378,-2.788,0.561,0.491,0.24,-0.677,-1.887,-1.422,0.271,-1.356,0.771
0.848,-0.021,-2.799,-2.779,1.409,1.379,-2.788,0.561,0.49,0.24,-0.678,-1.887,-1.423,0.271,-1.357,0.772
0.849,-0.024,-2.803,-2.779,1.413,1.377,-2.79,0.561,0.489,0.241,-0.677,-1.888,-1.423,0.271,-1.355,0.773
0.85,-0.029,-2.8,-2.771,1.415,1.371,-2.785,0.561,0.488,0.24,-0.677,-1.888,-1.423,0.271,-1.35,0.774
0.851,-0.029,-2.796,-2.768,1.413,1.369,-2.782,0.563,0.487,0.24,-0.677,-1.887,-1.42,0.271,-1.351,0.773
0.852,-0.027,-2.798,-2.772,1.413,1.372,-2.784,0.564,0.487,0.24,-0.677,-1.887,-1.421,0.27,-1.355,0.772
0.853,-0.026,-2.799,-2.772,1.413,1.373,-2.785,0.562,0.486,0.24,-0.677,-1.887,-1.419,0.271,-1.357,0.773
0.854,-0.029,-2.8,-2.771,1.415,1.371,-2.785,0.562,0.485,0.239,-0.677,-1.887,-1.419,0.273,-1.357,0.774
0.855,-0.03,-2.8,-2.77,1.415,1.37,-2.784,0.558,0.485,0.24,-0.681,-1.89,-1.423,0.27,-1.359,0.773
0.856,-0.03,-2.799,-2.769,1.415,1.369,-2.784,0.557,0.484,0.241,-0.68,-1.891,-1.423,0.27,-1.358,0.772
0.857,-0.032,-2.8,-2.768,1.416,1.369,-2.784,0.559,0.484,0.24,-0.68,-1.891,-1.421,0.269,-1.359,0.773
0.858,-0.028,-2.798,-2.771,1.413,1.372,-2.784,0.557,0.484,0.24,-0.68,-1.89,-1.422,0.27,-1.359,0.773
0.859,-0.028,-2.798,-2.771,1.413,1.371,-2.784,0.558,0.483,0.242,-0.68,-1.888,-1.421,0.273,-1.36,0.775
0.86,-0.03,-2.8,-2.771,1.415,1.371,-2.785,0.558,0.484,0.241,-0.678,-1.889,-1.421,0.272,-1.361,0.775
0.861,-0.029,-2.801,-2.773,1.415,1.372,-2.787,0.559,0.484,0.241,-0.68,-1.89,-1.421,0.271,-1.365,0.774
0.862,-0.029,-2.8,-2.772,1.415,1.371,-2.785,0.559,0.485,0.243,-0.68,-1.889,-1.42,0.271,-1.367,0.773
0.863,-0.027,-2.8,-2.774,1.414,1.373,-2.787,0.559,0.486,0.242,-0.68,-1.889,-1.419,0.271,-1.369,0.774
0.864,-0.026,-2.801,-2.776,1.413,1.375,-2.788,0.561,0.487,0.242,-0.679,-1.888,-1.418,0.273,-1.37,0.775
0.865,-0.024,-2.8,-2.776,1.411,1.377,-2.788,0.562,0.486,0.24,-0.678,-1.887,-1.418,0.271,-1.369,0.777
0.866,-0.022,-2.801,-2.78,1.411,1.379,-2.79,0.561,0.486,0.24,-0.678,-1.888,-1.418,0.271,-1.369,0.778
0.867,-0.025,-2.801,-2.776,1.413,1.376,-2.788,0.559,0.485,0.241,-0.679,-1.887,-1.418,0.27,-1.369,0.776
0.868,-0.026,-2.803,-2.777,1.414,1.375,-2.789,0.561,0.484,0.239,-0.679,-1.888,-1.419,0.268,-1.369,0.775
0.869,-0.028,-2.804,-2.776,1.416,1.375,-2.789,0.561,0.485,0.24,-0.679,-1.887,-1.418,0.271,-1.367,0.776
0.87,-0.026,-2.798,-2.772,1.412,1.373,-2.784,0.559,0.482,0.238,-0.68,-1.888,-1.419,0.272,-1.363,0.777
0.871,-0.024,-2.797,-2.774,1.41,1.375,-2.785,0.558,0.483,0.236,-0.679,-1.887,-1.419,0.27,-1.364,0.777
0.872,-0.023,-2.798,-2.776,1.41,1.377,-2.787,0.56,0.484,0.236,-0.677,-1.885,-1.417,0.269,-1.366,0.777
0.873,-0.021,-2.798,-2.777,1.409,1.378,-2.787,0.56,0.481,0.236,-0.678,-1.888,-1.417,0.27,-1.365,0.777
0.874,-0.022,-2.799,-2.776,1.41,1.377,-2.787,0.558,0.48,0.237,-0.679,-1.887,-1.419,0.27,-1.363,0.778
0.875,-0.025,-2.798,-2.775,1.411,1.375,-2.786,0.557,0.48,0.236,-0.681,-1.891,-1.42,0.269,-1.363,0.775
0.876,-0.025,-2.798,-2.774,1.411,1.375,-2.785,0.555,0.479,0.234,-0.681,-1.892,-1.421,0.268,-1.361,0.774
0.877,-0.027,-2.799,-2.772,1.413,1.373,-2.784,0.556,0.48,0.234,-0.681,-1.889,-1.42,0.269,-1.36,0.775
0.878,-0.028,-2.797,-2.769,1.413,1.371,-2.783,0.557,0.48,0.235,-0.68,-1.89,-1.421,0.267,-1.359,0.775
0.879,-0.026,-2.796,-2.769,1.411,1.371,-2.782,0.555,0.479,0.235,-0.679,-1.89,-1.421,0.268,-1.357,0.775
0.88,-0.025,-2.8,-2.775,1.413,1.375,-2.787,0.556,0.48,0.234,-0.681,-1.891,-1.419,0.269,-1.361,0.776
0.881,-0.024,-2.8,-2.777,1.411,1.377,-2.788,0.557,0.481,0.235,-0.68,-1.891,-1.421,0.268,-1.361,0.777
0.882,-0.025,-2.798,-2.773,1.411,1.374,-2.785,0.556,0.48,0.234,-0.683,-1.892,-1.42,0.269,-1.357,0.776
0.883,-0.027,-2.8,-2.773,1.413,1.373,-2.785,0.556,0.479,0.235,-0.683,-1.891,-1.42,0.267,-1.357,0.774
0.884,-0.026,-2.799,-2.772,1.413,1.373,-2.785,0.558,0.48,0.234,-0.681,-1.889,-1.419,0.268,-1.357,0.775
0.885,-0.027,-2.799,-2.772,1.413,1.373,-2.785,0.558,0.48,0.232,-0.68,-1.887,-1.417,0.269,-1.357,0.775
0.886,-0.027,-2.802,-2.776,1.415,1.375,-2.788,0.559,0.48,0.233,-0.679,-1.887,-1.416,0.269,-1.362,0.776
0.887,-0.027,-2.801,-2.774,1.414,1.373,-2.787,0.56,0.479,0.23,-0.68,-1.889,-1.417,0.269,-1.361,0.776
0.888,-0.026,-2.8,-2.775,1.413,1.374,-2.787,0.559,0.48,0.23,-0.681,-1.887,-1.417,0.267,-1.362,0.775
0.889,-0.027,-2.804,-2.777,1.415,1.375,-2.789,0.558,0.48,0.23,-0.682,-1.887,-1.417,0.268,-1.363,0.776
0.89,-0.027,-2.8,-2.773,1.413,1.373,-2.786,0.558,0.478,0.229,-0.683,-1.887,-1.418,0.269,-1.363,0.773
0.891,-0.026,-2.8,-2.773,1.413,1.373,-2.786,0.558,0.48,0.228,-0.682,-1.887,-1.417,0.268,-1.363,0.772
0.892,-0.029,-2.803,-2.773,1.415,1.373,-2.788,0.559,0.48,0.229,-0.682,-1.884,-1.415,0.268,-1.363,0.774
0.893,-0.03,-2.804,-2.774,1.417,1.372,-2.788,0.56,0.479,0.229,-0.681,-1.885,-1.416,0.268,-1.365,0.773
0.894,-0.033,-2.806,-2.773,1.419,1.371,-2.789,0.558,0.477,0.228,-0.684,-1.887,-1.417,0.267,-1.362,0.773
0.895,-0.032,-2.804,-2.772,1.417,1.37,-2.787,0.558,0.475,0.229,-0.686,-1.889,-1.42,0.267,-1.359,0.773
0.896,-0.032,-2.801,-2.769,1.417,1.369,-2.785,0.558,0.476,0.23,-0.685,-1.89,-1.421,0.265,-1.359,0.771
0.897,-0.034,-2.804,-2.77,1.419,1.368,-2.786,0.556,0.477,0.231,-0.683,-1.887,-1.419,0.265,-1.361,0.772
0.898,-0.031,-2.8,-2.77,1.416,1.369,-2.785,0.556,0.477,0.231,-0.684,-1.887,-1.418,0.268,-1.361,0.773
0.899,-0.028,-2.797,-2.771,1.413,1.371,-2.784,0.556,0.478,0.231,-0.684,-1.887,-1.417,0.268,-1.361,0.772
0.9,-0.028,-2.8,-2.773,1.414,1.373,-2.787,0.557,0.478,0.232,-0.684,-1.888,-1.417,0.267,-1.364,0.774
0.901,-0.03,-2.805,-2.775,1.417,1.373,-2.789,0.556,0.476,0.232,-0.686,-1.891,-1.421,0.266,-1.365,0.775
0.902,-0.03,-2.805,-2.776,1.418,1.373,-2.79,0.557,0.477,0.231,-0.685,-1.891,-1.421,0.265,-1.365,0.775
0.903,-0.032,-2.804,-2.772,1.417,1.371,-2.788,0.559,0.477,0.233,-0.684,-1.889,-1.418,0.267,-1.365,0.774
0.904,-0.03,-2.802,-2.772,1.417,1.371,-2.787,0.559,0.479,0.234,-0.685,-1.888,-1.417,0.267,-1.367,0.774
0.905,-0.03,-2.801,-2.772,1.416,1.371,-2.787,0.558,0.48,0.234,-0.681,-1.885,-1.413,0.268,-1.369,0.776
0.906,-0.03,-2.801,-2.772,1.416,1.371,-2.786,0.559,0.481,0.233,-0.681,-1.885,-1.413,0.268,-1.369,0.776
0.907,-0.03,-2.803,-2.773,1.416,1.371,-2.788,0.558,0.481,0.231,-0.682,-1.885,-1.415,0.268,-1.369,0.776
0.908,-0.03,-2.804,-2.775,1.417,1.372,-2.789,0.559,0.479,0.233,-0.682,-1.885,-1.415,0.268,-1.371,0.776
0.909,-0.028,-2.804,-2.777,1.416,1.375,-2.791,0.56,0.478,0.231,-0.683,-1.885,-1.415,0.268,-1.371,0.776
0.91,-0.026,-2.8,-2.773,1.413,1.373,-2.786,0.558,0.478,0.231,-0.683,-1.886,-1.414,0.269,-1.367,0.775
0.911,-0.027,-2.8,-2.772,1.413,1.373,-2.785,0.56,0.48,0.23,-0.681,-1.885,-1.414,0.268,-1.367,0.774
0.912,-0.026,-2.803,-2.776,1.414,1.375,-2.788,0.559,0.477,0.229,-0.682,-1.887,-1.416,0.265,-1.368,0.776
0.913,-0.025,-2.803,-2.777,1.414,1.376,-2.789,0.556,0.478,0.228,-0.684,-1.889,-1.417,0.266,-1.367,0.776
0.914,-0.027,-2.804,-2.778,1.415,1.375,-2.791,0.558,0.478,0.229,-0.684,-1.887,-1.415,0.268,-1.366,0.775
0.915,-0.03,-2.806,-2.776,1.418,1.373,-2.791,0.557,0.477,0.231,-0.685,-1.889,-1.418,0.266,-1.365,0.773
0.916,-0.031,-2.805,-2.775,1.419,1.372,-2.789,0.558,0.478,0.231,-0.686,-1.888,-1.418,0.266,-1.366,0.771
0.917,-0.029,-2.804,-2.775,1.416,1.373,-2.788,0.558,0.479,0.233,-0.684,-1.887,-1.415,0.266,-1.366,0.772
0.918,-0.027,-2.8,-2.773,1.413,1.373,-2.785,0.559,0.478,0.232,-0.684,-1.886,-1.415,0.266,-1.365,0.774
0.919,-0.027,-2.799,-2.772,1.413,1.373,-2.785,0.56,0.479,0.231,-0.683,-1.885,-1.415,0.266,-1.364,0.774
0.92,-0.026,-2.801,-2.775,1.413,1.375,-2.788,0.558,0.48,0.232,-0.684,-1.885,-1.415,0.266,-1.365,0.774
0.921,-0.026,-2.804,-2.778,1.415,1.375,-2.791,0.558,0.478,0.232,-0.685,-1.887,-1.416,0.266,-1.368,0.775
0.922,-0.027,-2.805,-2.779,1.416,1.375,-2.792,0.558,0.48,0.231,-0.685,-1.888,-1.415,0.267,-1.368,0.774
0.923,-0.026,-2.804,-2.778,1.415,1.376,-2.791,0.56,0.482,0.233,-0.686,-1.887,-1.415,0.266,-1.367,0.773
0.924,-0.026,-2.804,-2.778,1.415,1.375,-2.791,0.561,0.481,0.233,-0.685,-1.884,-1.415,0.265,-1.367,0.773
0.925,-0.029,-2.807,-2.778,1.417,1.375,-2.792,0.561,0.481,0.232,-0.684,-1.882,-1.414,0.267,-1.367,0.777
0.926,-0.03,-2.808,-2.777,1.419,1.373,-2.792,0.564,0.48,0.232,-0.682,-1.883,-1.412,0.267,-1.367,0.778
0.927,-0.033,-2.807,-2.774,1.419,1.371,-2.789,0.561,0.48,0.231,-0.685,-1.884,-1.413,0.266,-1.367,0.777
0.928,-0.032,-2.808,-2.777,1.42,1.373,-2.792,0.561,0.48,0.232,-0.685,-1.885,-1.415,0.266,-1.367,0.778
0.929,-0.03,-2.809,-2.78,1.419,1.375,-2.795,0.564,0.48,0.233,-0.683,-1.884,-1.413,0.265,-1.369,0.776
0.93,-0.029,-2.803,-2.775,1.416,1.373,-2.788,0.562,0.481,0.233,-0.683,-1.883,-1.413,0.266,-1.367,0.775
0.931,-0.026,-2.801,-2.775,1.414,1.375,-2.788,0.56,0.481,0.232,-0.682,-1.883,-1.413,0.266,-1.367,0.775
0.932,-0.028,-2.804,-2.776,1.416,1.375,-2.79,0.562,0.481,0.23,-0.683,-1.883,-1.411,0.266,-1.367,0.775
0.933,-0.029,-2.805,-2.777,1.417,1.374,-2.791,0.56,0.48,0.231,-0.681,-1.883,-1.411,0.267,-1.368,0.779
0.934,-0.027,-2.805,-2.779,1.416,1.375,-2.792,0.558,0.481,0.233,-0.683,-1.883,-1.411,0.266,-1.368,0.777
0.935,-0.027,-2.803,-2.776,1.415,1.375,-2.788,0.558,0.481,0.233,-0.686,-1.885,-1.411,0.267,-1.367,0.774
0.936,-0.029,-2.801,-2.772,1.415,1.371,-2.787,0.558,0.481,0.234,-0.684,-1.883,-1.413,0.266,-1.367,0.773
0.937,-0.03,-2.801,-2.772,1.416,1.371,-2.787,0.558,0.482,0.234,-0.685,-1.883,-1.412,0.266,-1.367,0.773
0.938,-0.03,-2.8,-2.771,1.415,1.371,-2.785,0.559,0.482,0.232,-0.686,-1.884,-1.413,0.266,-1.365,0.773
0.939,-0.03,-2.799,-2.769,1.415,1.369,-2.784,0.56,0.481,0.233,-0.686,-1.883,-1.413,0.264,-1.362,0.772
0.94,-0.029,-2.801,-2.773,1.415,1.372,-2.787,0.558,0.481,0.232,-0.687,-1.883,-1.413,0.265,-1.367,0.771
0.941,-0.029,-2.802,-2.773,1.415,1.371,-2.787,0.558,0.481,0.232,-0.688,-1.885,-1.413,0.264,-1.369,0.77
0.942,-0.029,-2.801,-2.772,1.415,1.372,-2.787,0.559,0.48,0.233,-0.688,-1.885,-1.413,0.265,-1.367,0.77
0.943,-0.028,-2.802,-2.774,1.415,1.373,-2.788,0.558,0.48,0.233,-0.686,-1.883,-1.413,0.265,-1.367,0.77
0.944,-0.026,-2.8,-2.773,1.413,1.373,-2.786,0.557,0.48,0.231,-0.688,-1.883,-1.413,0.265,-1.366,0.771
0.945,-0.027,-2.801,-2.775,1.414,1.373,-2.787,0.556,0.479,0.23,-0.687,-1.883,-1.413,0.264,-1.367,0.772
0.946,-0.028,-2.801,-2.773,1.414,1.373,-2.787,0.556,0.48,0.228,-0.684,-1.883,-1.411,0.265,-1.367,0.772
0.947,-0.026,-2.798,-2.772,1.413,1.373,-2.784,0.555,0.481,0.228,-0.685,-1.883,-1.412,0.265,-1.367,0.774
0.948,-0.027,-2.8,-2.772,1.413,1.373,-2.785,0.556,0.48,0.228,-0.686,-1.884,-1.413,0.265,-1.368,0.775
0.949,-0.026,-2.799,-2.773,1.413,1.373,-2.785,0.557,0.48,0.229,-0.686,-1.882,-1.409,0.266,-1.367,0.774
0.95,-0.025,-2.796,-2.772,1.411,1.373,-2.784,0.555,0.48,0.23,-0.686,-1.882,-1.409,0.265,-1.365,0.774
0.951,-0.026,-2.796,-2.771,1.411,1.372,-2.783,0.556,0.477,0.228,-0.685,-1.881,-1.409,0.265,-1.365,0.775
0.952,-0.029,-2.8,-2.771,1.415,1.371,-2.785,0.557,0.476,0.225,-0.685,-1.881,-1.409,0.265,-1.367,0.776
0.953,-0.03,-2.802,-2.772,1.417,1.371,-2.787,0.555,0.475,0.223,-0.685,-1.883,-1.411,0.264,-1.365,0.778
0.954,-0.03,-2.801,-2.772,1.416,1.371,-2.786,0.554,0.474,0.226,-0.687,-1.883,-1.409,0.266,-1.365,0.776
0.955,-0.03,-2.8,-2.771,1.415,1.37,-2.785,0.554,0.474,0.226,-0.688,-1.885,-1.411,0.265,-1.365,0.773
0.956,-0.03,-2.799,-2.769,1.414,1.369,-2.784,0.552,0.473,0.225,-0.687,-1.887,-1.413,0.266,-1.362,0.773
0.957,-0.03,-2.8,-2.771,1.415,1.371,-2.785,0.553,0.473,0.225,-0.689,-1.885,-1.413,0.266,-1.363,0.774
0.958,-0.03,-2.799,-2.768,1.415,1.369,-2.784,0.553,0.471,0.225,-0.688,-1.885,-1.414,0.263,-1.363,0.771
0.959,-0.03,-2.796,-2.766,1.413,1.368,-2.78,0.553,0.47,0.225,-0.687,-1.885,-1.413,0.263,-1.361,0.771
0.96,-0.032,-2.8,-2.768,1.415,1.368,-2.783,0.554,0.472,0.226,-0.688,-1.886,-1.412,0.263,-1.364,0.771
0.961,-0.034,-2.8,-2.767,1.417,1.367,-2.783,0.553,0.473,0.226,-0.688,-1.885,-1.413,0.262,-1.363,0.771
0.962,-0.033,-2.799,-2.767,1.415,1.367,-2.782,0.554,0.472,0.226,-0.69,-1.887,-1.413,0.262,-1.363,0.772
0.963,-0.031,-2.799,-2.768,1.415,1.369,-2.783,0.554,0.473,0.228,-0.69,-1.887,-1.413,0.263,-1.365,0.772
0.964,-0.031,-2.797,-2.768,1.414,1.369,-2.782,0.553,0.472,0.226,-0.688,-1.886,-1.413,0.263,-1.366,0.772
0.965,-0.03,-2.797,-2.768,1.413,1.369,-2.782,0.555,0.471,0.226,-0.686,-1.884,-1.412,0.262,-1.367,0.773
0.966,-0.03,-2.8,-2.771,1.415,1.371,-2.785,0.555,0.472,0.226,-0.685,-1.882,-1.411,0.262,-1.364,0.771
0.967,-0.03,-2.801,-2.771,1.415,1.371,-2.785,0.554,0.471,0.225,-0.688,-1.885,-1.413,0.262,-1.363,0.771
0.968,-0.03,-2.803,-2.773,1.417,1.371,-2.787,0.555,0.47,0.226,-0.689,-1.885,-1.411,0.262,-1.363,0.771
0.969,-0.03,-2.805,-2.776,1.417,1.373,-2.79,0.554,0.468,0.224,-0.689,-1.885,-1.411,0.263,-1.363,0.771
0.97,-0.028,-2.801,-2.773,1.415,1.373,-2.787,0.552,0.468,0.223,-0.688,-1.883,-1.409,0.265,-1.358,0.773
0.971,-0.028,-2.797,-2.771,1.413,1.371,-2.784,0.553,0.469,0.225,-0.685,-1.882,-1.407,0.266,-1.356,0.774
0.972,-0.027,-2.799,-2.772,1.413,1.372,-2.784,0.553,0.47,0.224,-0.684,-1.881,-1.407,0.264,-1.357,0.773
0.973,-0.026,-2.798,-2.772,1.412,1.373,-2.784,0.554,0.469,0.224,-0.684,-1.881,-1.408,0.263,-1.357,0.771
0.974,-0.026,-2.798,-2.772,1.413,1.373,-2.784,0.553,0.468,0.224,-0.686,-1.882,-1.411,0.263,-1.358,0.771
0.975,-0.026,-2.799,-2.772,1.413,1.373,-2.785,0.551,0.467,0.224,-0.689,-1.885,-1.414,0.262,-1.357,0.771
0.976,-0.026,-2.798,-2.772,1.412,1.373,-2.784,0.554,0.468,0.227,-0.688,-1.884,-1.412,0.262,-1.361,0.77
0.977,-0.023,-2.796,-2.774,1.41,1.375,-2.785,0.554,0.469,0.227,-0.686,-1.883,-1.409,0.264,-1.361,0.772
0.978,-0.028,-2.793,-2.766,1.411,1.369,-2.78,0.554,0.469,0.226,-0.689,-1.883,-1.409,0.264,-1.359,0.772
0.979,-0.033,-2.792,-2.76,1.413,1.363,-2.776,0.556,0.47,0.228,-0.688,-1.881,-1.409,0.263,-1.361,0.772
0.98,-0.03,-2.796,-2.767,1.413,1.368,-2.781,0.555,0.47,0.226,-0.687,-1.884,-1.41,0.261,-1.363,0.771
0.981,-0.028,-2.796,-2.769,1.412,1.371,-2.783,0.555,0.472,0.228,-0.688,-1.883,-1.411,0.261,-1.365,0.77
0.982,-0.027,-2.794,-2.768,1.411,1.371,-2.781,0.553,0.472,0.231,-0.689,-1.881,-1.409,0.263,-1.363,0.769
0.983,-0.03,-2.795,-2.766,1.413,1.368,-2.78,0.554,0.473,0.23,-0.688,-1.881,-1.409,0.261,-1.361,0.771
0.984,-0.029,-2.795,-2.767,1.411,1.369,-2.78,0.555,0.472,0.227,-0.685,-1.879,-1.406,0.263,-1.363,0.771
0.985,-0.026,-2.796,-2.769,1.411,1.371,-2.783,0.554,0.472,0.226,-0.684,-1.878,-1.405,0.263,-1.366,0.772
0.986,-0.029,-2.798,-2.769,1.413,1.371,-2.784,0.555,0.474,0.224,-0.684,-1.879,-1.407,0.261,-1.367,0.773
0.987,-0.03,-2.799,-2.768,1.415,1.369,-2.783,0.554,0.474,0.226,-0.684,-1.88,-1.407,0.26,-1.366,0.771
0.988,-0.028,-2.8,-2.773,1.413,1.373,-2.787,0.554,0.473,0.225,-0.685,-1.88,-1.407,0.261,-1.367,0.773
0.989,-0.026,-2.802,-2.776,1.414,1.375,-2.788,0.554,0.473,0.224,-0.687,-1.88,-1.407,0.262,-1.367,0.773
0.99,-0.03,-2.799,-2.769,1.414,1.369,-2.783,0.553,0.473,0.225,-0.685,-1.879,-1.407,0.262,-1.365,0.771
0.991,-0.03,-2.796,-2.767,1.413,1.368,-2.781,0.553,0.474,0.222,-0.684,-1.88,-1.405,0.264,-1.364,0.77
0.992,-0.029,-2.799,-2.769,1.414,1.37,-2.784,0.552,0.473,0.221,-0.684,-1.881,-1.403,0.264,-1.369,0.771
0.993,-0.03,-2.801,-2.772,1.415,1.371,-2.786,0.551,0.472,0.221,-0.684,-1.879,-1.405,0.263,-1.371,0.771
0.994,-0.03,-2.802,-2.772,1.416,1.371,-2.787,0.551,0.471,0.222,-0.687,-1.881,-1.405,0.263,-1.37,0.771
0.995,-0.03,-2.799,-2.769,1.415,1.369,-2.784,0.55,0.471,0.223,-0.688,-1.883,-1.407,0.263,-1.365,0.77
0.996,-0.032,-2.797,-2.766,1.415,1.367,-2.781,0.55,0.471,0.222,-0.689,-1.883,-1.407,0.262,-1.365,0.77
0.997,-0.032,-2.798,-2.767,1.415,1.367,-2.783,0.55,0.472,0.223,-0.688,-1.883,-1.407,0.261,-1.365,0.77
0.998,-0.03,-2.796,-2.767,1.413,1.368,-2.781,0.549,0.471,0.222,-0.688,-1.883,-1.407,0.263,-1.361,0.771
0.999,-0.031,-2.795,-2.764,1.413,1.367,-2.78,0.55,0.472,0.223,-0.688,-1.881,-1.407,0.263,-1.362,0.771
1,-0.032,-2.798,-2.767,1.415,1.367,-2.782,0.554,0.474,0.226,-0.686,-1.881,-1.406,0.263,-1.364,0.77
1.001,-0.034,-2.799,-2.765,1.417,1.365,-2.782,0.552,0.473,0.224,-0.689,-1.881,-1.407,0.261,-1.365,0.768
1.002,-0.035,-2.799,-2.764,1.417,1.365,-2.781,0.551,0.472,0.222,-0.69,-1.882,-1.409,0.262,-1.366,0.769
1.003,-0.034,-2.797,-2.764,1.415,1.365,-2.78,0.553,0.473,0.222,-0.689,-1.881,-1.407,0.263,-1.365,0.77
1.004,-0.03,-2.795,-2.765,1.413,1.367,-2.78,0.553,0.473,0.221,-0.688,-1.881,-1.405,0.262,-1.365,0.77
1.005,-0.031,-2.796,-2.766,1.413,1.367,-2.781,0.553,0.473,0.22,-0.686,-1.878,-1.403,0.263,-1.369,0.77
1.006,-0.033,-2.798,-2.765,1.416,1.366,-2.781,0.554,0.472,0.22,-0.685,-1.877,-1.403,0.264,-1.37,0.771
1.007,-0.032,-2.798,-2.766,1.415,1.367,-2.781,0.553,0.471,0.221,-0.687,-1.879,-1.405,0.263,-1.371,0.769
1.008,-0.03,-2.799,-2.769,1.415,1.369,-2.784,0.554,0.473,0.222,-0.686,-1.878,-1.403,0.264,-1.373,0.77
1.009,-0.027,-2.8,-2.774,1.413,1.373,-2.787,0.553,0.472,0.222,-0.686,-1.879,-1.403,0.263,-1.373,0.771
1.01,-0.03,-2.797,-2.767,1.414,1.369,-2.782,0.553,0.472,0.221,-0.687,-1.879,-1.403,0.264,-1.371,0.771
1.011,-0.032,-2.796,-2.764,1.413,1.366,-2.78,0.553,0.472,0.222,-0.684,-1.875,-1.403,0.263,-1.369,0.773
1.012,-0.03,-2.797,-2.767,1.414,1.368,-2.781,0.551,0.471,0.22,-0.684,-1.877,-1.405,0.262,-1.367,0.774
1.013,-0.033,-2.8,-2.768,1.417,1.367,-2.784,0.553,0.472,0.22,-0.685,-1.877,-1.404,0.263,-1.369,0.775
1.014,-0.032,-2.801,-2.769,1.417,1.369,-2.784,0.552,0.472,0.222,-0.685,-1.877,-1.403,0.264,-1.369,0.772
1.015,-0.034,-2.799,-2.765,1.416,1.365,-2.781,0.552,0.471,0.224,-0.688,-1.879,-1.404,0.263,-1.367,0.77
1.016,-0.035,-2.797,-2.763,1.416,1.364,-2.78,0.554,0.472,0.226,-0.687,-1.879,-1.404,0.263,-1.366,0.77
1.017,-0.034,-2.798,-2.765,1.416,1.365,-2.781,0.554,0.472,0.226,-0.685,-1.878,-1.403,0.264,-1.366,0.77
1.018,-0.034,-2.797,-2.764,1.415,1.365,-2.78,0.555,0.471,0.226,-0.686,-1.877,-1.403,0.263,-1.365,0.77
1.019,-0.034,-2.795,-2.762,1.414,1.365,-2.779,0.553,0.471,0.224,-0.688,-1.879,-1.403,0.264,-1.363,0.77
1.02,-0.037,-2.801,-2.765,1.419,1.364,-2.783,0.554,0.472,0.225,-0.688,-1.878,-1.405,0.263,-1.366,0.771
1.021,-0.04,-2.805,-2.766,1.422,1.363,-2.785,0.554,0.472,0.228,-0.689,-1.879,-1.405,0.261,-1.365,0.771
1.022,-0.037,-2.802,-2.765,1.419,1.363,-2.783,0.554,0.471,0.228,-0.691,-1.88,-1.405,0.262,-1.363,0.771
1.023,-0.039,-2.801,-2.764,1.42,1.363,-2.782,0.553,0.471,0.229,-0.69,-1.879,-1.403,0.262,-1.363,0.771
1.024,-0.038,-2.801,-2.764,1.419,1.363,-2.783,0.554,0.471,0.227,-0.688,-1.878,-1.401,0.264,-1.365,0.77
1.025,-0.037,-2.801,-2.765,1.419,1.364,-2.783,0.556,0.473,0.225,-0.684,-1.877,-1.399,0.264,-1.368,0.768
1.026,-0.037,-2.804,-2.768,1.421,1.365,-2.785,0.555,0.471,0.225,-0.685,-1.877,-1.401,0.264,-1.367,0.771
1.027,-0.037,-2.805,-2.768,1.421,1.366,-2.787,0.554,0.47,0.226,-0.689,-1.877,-1.402,0.265,-1.367,0.771
1.028,-0.036,-2.807,-2.771,1.421,1.367,-2.788,0.555,0.472,0.225,-0.686,-1.875,-1.401,0.263,-1.369,0.771
1.029,-0.036,-2.808,-2.772,1.422,1.367,-2.789,0.555,0.472,0.224,-0.685,-1.875,-1.401,0.263,-1.369,0.772
1.03,-0.036,-2.804,-2.768,1.42,1.365,-2.785,0.557,0.472,0.224,-0.686,-1.877,-1.401,0.262,-1.367,0.769
1.031,-0.033,-2.803,-2.769,1.418,1.368,-2.785,0.556,0.47,0.223,-0.687,-1.877,-1.401,0.264,-1.367,0.77
1.032,-0.034,-2.805,-2.772,1.419,1.369,-2.788,0.556,0.47,0.222,-0.685,-1.877,-1.4,0.264,-1.369,0.77
1.033,-0.035,-2.806,-2.772,1.42,1.369,-2.788,0.557,0.472,0.222,-0.685,-1.876,-1.399,0.264,-1.371,0.771
1.034,-0.034,-2.804,-2.771,1.419,1.369,-2.787,0.554,0.471,0.221,-0.686,-1.877,-1.401,0.264,-1.367,0.772
1.035,-0.034,-2.801,-2.768,1.417,1.367,-2.784,0.554,0.47,0.223,-0.688,-1.877,-1.403,0.263,-1.366,0.769
1.036,-0.034,-2.801,-2.768,1.417,1.367,-2.784,0.556,0.47,0.224,-0.689,-1.877,-1.403,0.261,-1.365,0.768
1.037,-0.034,-2.801,-2.768,1.417,1.367,-2.784,0.554,0.471,0.224,-0.686,-1.877,-1.401,0.262,-1.366,0.77
1.038,-0.034,-2.8,-2.767,1.417,1.367,-2.783,0.555,0.47,0.224,-0.684,-1.876,-1.401,0.264,-1.367,0.77
1.039,-0.035,-2.799,-2.764,1.417,1.365,-2.781,0.555,0.47,0.224,-0.686,-1.875,-1.402,0.264,-1.364,0.768
1.04,-0.035,-2.802,-2.768,1.419,1.367,-2.784,0.556,0.473,0.225,-0.687,-1.875,-1.401,0.264,-1.369,0.769
1.041,-0.034,-2.803,-2.77,1.418,1.369,-2.786,0.556,0.471,0.225,-0.689,-1.877,-1.401,0.262,-1.367,0.771
1.042,-0.034,-2.801,-2.768,1.417,1.367,-2.784,0.555,0.469,0.225,-0.69,-1.879,-1.401,0.263,-1.365,0.771
1.043,-0.034,-2.801,-2.768,1.417,1.367,-2.784,0.555,0.469,0.225,-0.689,-1.877,-1.401,0.265,-1.366,0.772
1.044,-0.033,-2.801,-2.769,1.417,1.368,-2.784,0.555,0.469,0.225,-0.686,-1.877,-1.401,0.263,-1.367,0.772
1.045,-0.033,-2.803,-2.77,1.418,1.368,-2.785,0.555,0.47,0.225,-0.684,-1.875,-1.397,0.265,-1.368,0.773
1.046,-0.034,-2.803,-2.769,1.418,1.367,-2.785,0.556,0.47,0.224,-0.683,-1.873,-1.397,0.265,-1.368,0.773
1.047,-0.034,-2.801,-2.768,1.417,1.367,-2.784,0.556,0.47,0.226,-0.685,-1.873,-1.397,0.263,-1.371,0.77
1.048,-0.034,-2.801,-2.768,1.417,1.367,-2.784,0.556,0.472,0.227,-0.684,-1.871,-1.395,0.264,-1.372,0.77
1.049,-0.032,-2.801,-2.77,1.417,1.369,-2.785,0.556,0.473,0.228,-0.682,-1.871,-1.395,0.264,-1.373,0.769
1.05,-0.03,-2.8,-2.77,1.415,1.37,-2.784,0.556,0.472,0.226,-0.684,-1.873,-1.396,0.264,-1.37,0.771
1.051,-0.03,-2.797,-2.768,1.414,1.369,-2.782,0.555,0.47,0.225,-0.683,-1.873,-1.395,0.266,-1.367,0.774
1.052,-0.032,-2.8,-2.768,1.415,1.369,-2.784,0.556,0.472,0.225,-0.683,-1.871,-1.393,0.266,-1.369,0.774
1.053,-0.034,-2.801,-2.768,1.417,1.367,-2.784,0.556,0.472,0.224,-0.682,-1.871,-1.395,0.265,-1.369,0.773
1.054,-0.033,-2.801,-2.768,1.417,1.367,-2.784,0.556,0.471,0.224,-0.683,-1.871,-1.395,0.265,-1.367,0.774
1.055,-0.033,-2.8,-2.768,1.416,1.367,-2.783,0.555,0.471,0.224,-0.685,-1.873,-1.397,0.264,-1.365,0.773
1.056,-0.031,-2.799,-2.768,1.415,1.368,-2.783,0.554,0.471,0.223,-0.685,-1.873,-1.397,0.264,-1.367,0.771
1.057,-0.03,-2.799,-2.768,1.415,1.369,-2.783,0.553,0.47,0.224,-0.686,-1.872,-1.397,0.265,-1.367,0.77
1.058,-0.03,-2.797,-2.768,1.413,1.369,-2.783,0.553,0.47,0.225,-0.685,-1.874,-1.398,0.266,-1.367,0.769
1.059,-0.032,-2.797,-2.766,1.415,1.367,-2.781,0.554,0.471,0.226,-0.686,-1.873,-1.397,0.265,-1.366,0.771
1.06,-0.034,-2.8,-2.767,1.417,1.367,-2.783,0.555,0.473,0.227,-0.685,-1.871,-1.395,0.264,-1.368,0.77
1.061,-0.033,-2.8,-2.768,1.417,1.367,-2.784,0.555,0.472,0.228,-0.684,-1.873,-1.395,0.266,-1.369,0.769
1.062,-0.033,-2.799,-2.766,1.415,1.367,-2.782,0.554,0.473,0.229,-0.684,-1.872,-1.396,0.265,-1.367,0.769
1.063,-0.033,-2.798,-2.765,1.415,1.367,-2.781,0.555,0.475,0.23,-0.682,-1.871,-1.395,0.265,-1.367,0.77
1.064,-0.034,-2.798,-2.765,1.416,1.365,-2.781,0.555,0.475,0.23,-0.682,-1.87,-1.393,0.266,-1.365,0.773
1.065,-0.032,-2.796,-2.765,1.415,1.367,-2.781,0.556,0.476,0.229,-0.681,-1.869,-1.393,0.267,-1.367,0.772
1.066,-0.029,-2.796,-2.768,1.412,1.37,-2.781,0.556,0.478,0.229,-0.68,-1.868,-1.392,0.267,-1.367,0.772
1.067,-0.029,-2.794,-2.766,1.411,1.369,-2.78,0.557,0.479,0.231,-0.679,-1.867,-1.391,0.267,-1.367,0.771
1.068,-0.029,-2.795,-2.767,1.411,1.369,-2.78,0.558,0.48,0.232,-0.678,-1.867,-1.39,0.268,-1.368,0.766
1.069,-0.027,-2.795,-2.768,1.411,1.371,-2.782,0.558,0.481,0.231,-0.678,-1.867,-1.389,0.268,-1.366,0.766
1.07,-0.026,-2.791,-2.765,1.409,1.369,-2.777,0.562,0.485,0.232,-0.676,-1.865,-1.389,0.271,-1.363,0.765
1.071,-0.024,-2.785,-2.761,1.405,1.369,-2.773,0.566,0.489,0.235,-0.673,-1.863,-1.387,0.274,-1.361,0.762
1.072,-0.023,-2.781,-2.759,1.402,1.368,-2.77,0.57,0.493,0.238,-0.67,-1.859,-1.385,0.274,-1.361,0.759
1.073,-0.021,-2.779,-2.759,1.399,1.369,-2.769,0.572,0.496,0.24,-0.668,-1.857,-1.382,0.276,-1.359,0.757
1.074,-0.02,-2.776,-2.756,1.397,1.369,-2.766,0.573,0.498,0.244,-0.666,-1.857,-1.382,0.275,-1.355,0.752
1.075,-0.018,-2.772,-2.755,1.395,1.369,-2.763,0.576,0.501,0.25,-0.665,-1.855,-1.382,0.275,-1.355,0.747
1.076,-0.013,-2.769,-2.756,1.391,1.371,-2.763,0.576,0.504,0.253,-0.663,-1.854,-1.381,0.279,-1.351,0.75
1.077,-0.011,-2.767,-2.757,1.389,1.373,-2.762,0.576,0.506,0.255,-0.661,-1.853,-1.379,0.279,-1.349,0.751
1.078,-0.01,-2.764,-2.755,1.387,1.373,-2.759,0.578,0.507,0.256,-0.661,-1.854,-1.381,0.28,-1.349,0.748
1.079,-0.009,-2.763,-2.754,1.385,1.373,-2.758,0.58,0.511,0.259,-0.658,-1.851,-1.379,0.283,-1.347,0.746
1.08,-0.004,-2.762,-2.759,1.383,1.377,-2.76,0.582,0.515,0.263,-0.655,-1.847,-1.374,0.287,-1.347,0.741
1.081,-0.001,-2.756,-2.756,1.379,1.377,-2.756,0.58,0.517,0.266,-0.653,-1.846,-1.373,0.287,-1.347,0.737
1.082,0.004,-2.748,-2.752,1.372,1.378,-2.75,0.58,0.519,0.268,-0.651,-1.843,-1.372,0.288,-1.345,0.735
1.083,0.005,-2.744,-2.75,1.369,1.378,-2.747,0.579,0.518,0.268,-0.65,-1.843,-1.371,0.29,-1.343,0.737
1.084,0.009,-2.74,-2.748,1.365,1.379,-2.744,0.58,0.522,0.272,-0.645,-1.837,-1.367,0.293,-1.343,0.737
1.085,0.014,-2.727,-2.741,1.357,1.377,-2.734,0.586,0.53,0.277,-0.638,-1.832,-1.361,0.295,-1.339,0.73
1.086,0.014,-2.717,-2.732,1.352,1.373,-2.725,0.592,0.534,0.281,-0.633,-1.829,-1.359,0.295,-1.333,0.72
1.087,0.009,-2.712,-2.721,1.351,1.365,-2.716,0.598,0.538,0.284,-0.631,-1.827,-1.356,0.293,-1.332,0.71
1.088,0.007,-2.704,-2.711,1.348,1.359,-2.707,0.603,0.54,0.288,-0.628,-1.825,-1.355,0.292,-1.329,0.7
1.089,0.008,-2.697,-2.706,1.345,1.357,-2.702,0.605,0.542,0.29,-0.626,-1.823,-1.353,0.292,-1.328,0.694
1.09,0.007,-2.691,-2.699,1.342,1.353,-2.695,0.606,0.542,0.29,-0.624,-1.822,-1.351,0.293,-1.327,0.692
1.091,0.009,-2.688,-2.697,1.339,1.353,-2.692,0.608,0.542,0.289,-0.622,-1.819,-1.35,0.294,-1.325,0.689
1.092,0.013,-2.683,-2.696,1.335,1.355,-2.69,0.609,0.544,0.289,-0.622,-1.819,-1.348,0.295,-1.325,0.685
1.093,0.011,-2.679,-2.691,1.335,1.351,-2.685,0.611,0.546,0.291,-0.619,-1.818,-1.349,0.293,-1.321,0.682
1.094,0.008,-2.682,-2.689,1.337,1.349,-2.686,0.611,0.546,0.292,-0.623,-1.82,-1.349,0.292,-1.317,0.682
1.095,0.003,-2.683,-2.688,1.341,1.345,-2.686,0.615,0.541,0.288,-0.629,-1.825,-1.355,0.287,-1.312,0.682
1.096,0,-2.688,-2.689,1.344,1.345,-2.689,0.613,0.536,0.283,-0.632,-1.829,-1.357,0.285,-1.31,0.689
1.097,0,-2.692,-2.692,1.345,1.346,-2.692,0.609,0.53,0.278,-0.636,-1.83,-1.357,0.284,-1.311,0.693
1.098,-0.002,-2.689,-2.688,1.345,1.343,-2.689,0.607,0.525,0.275,-0.637,-1.83,-1.359,0.283,-1.31,0.693
1.099,-0.003,-2.687,-2.684,1.345,1.341,-2.686,0.603,0.522,0.271,-0.641,-1.832,-1.358,0.282,-1.31,0.695
1.1,-0.008,-2.688,-2.681,1.348,1.337,-2.684,0.601,0.517,0.268,-0.643,-1.833,-1.359,0.278,-1.316,0.693
1.101,-0.011,-2.683,-2.672,1.347,1.331,-2.678,0.601,0.519,0.271,-0.64,-1.83,-1.357,0.279,-1.318,0.687
1.102,-0.008,-2.679,-2.671,1.343,1.331,-2.675,0.603,0.523,0.275,-0.638,-1.827,-1.355,0.281,-1.319,0.684
1.103,-0.002,-2.676,-2.675,1.339,1.337,-2.676,0.603,0.527,0.278,-0.634,-1.825,-1.353,0.284,-1.323,0.684
1.104,0.003,-2.674,-2.677,1.336,1.339,-2.675,0.605,0.531,0.281,-0.63,-1.82,-1.349,0.288,-1.33,0.685
1.105,0.004,-2.677,-2.682,1.337,1.343,-2.679,0.609,0.537,0.284,-0.625,-1.816,-1.345,0.291,-1.339,0.682
1.106,0.009,-2.675,-2.685,1.333,1.347,-2.68,0.61,0.544,0.29,-0.62,-1.813,-1.341,0.297,-1.342,0.679
1.107,0.015,-2.669,-2.684,1.327,1.349,-2.676,0.611,0.548,0.299,-0.615,-1.808,-1.337,0.301,-1.342,0.676
1.108,0.019,-2.663,-2.683,1.322,1.351,-2.674,0.613,0.555,0.305,-0.609,-1.804,-1.333,0.305,-1.345,0.671
1.109,0.024,-2.659,-2.683,1.317,1.353,-2.671,0.617,0.564,0.312,-0.604,-1.798,-1.329,0.31,-1.346,0.665
1.11,0.027,-2.655,-2.682,1.313,1.355,-2.668,0.622,0.571,0.32,-0.598,-1.794,-1.326,0.314,-1.342,0.664
1.111,0.031,-2.65,-2.681,1.31,1.356,-2.665,0.626,0.574,0.322,-0.595,-1.792,-1.325,0.317,-1.339,0.662
1.112,0.032,-2.646,-2.679,1.307,1.355,-2.663,0.626,0.575,0.321,-0.594,-1.791,-1.323,0.318,-1.336,0.658
1.113,0.031,-2.646,-2.678,1.308,1.354,-2.662,0.624,0.574,0.321,-0.594,-1.792,-1.324,0.318,-1.331,0.661
1.114,0.03,-2.644,-2.674,1.307,1.352,-2.659,0.623,0.572,0.323,-0.595,-1.793,-1.323,0.318,-1.326,0.655
1.115,0.024,-2.64,-2.663,1.308,1.343,-2.651,0.623,0.568,0.321,-0.597,-1.793,-1.323,0.315,-1.32,0.649
1.116,0.018,-2.639,-2.658,1.311,1.337,-2.648,0.622,0.559,0.317,-0.601,-1.796,-1.327,0.308,-1.321,0.65
1.117,0.017,-2.639,-2.657,1.311,1.337,-2.648,0.62,0.557,0.314,-0.602,-1.796,-1.327,0.306,-1.321,0.651
1.118,0.016,-2.636,-2.652,1.31,1.335,-2.644,0.616,0.551,0.309,-0.605,-1.797,-1.327,0.306,-1.32,0.652
1.119,0.017,-2.638,-2.655,1.31,1.335,-2.646,0.609,0.55,0.308,-0.607,-1.798,-1.326,0.309,-1.324,0.655
1.12,0.018,-2.639,-2.658,1.31,1.338,-2.648,0.602,0.549,0.309,-0.604,-1.793,-1.324,0.31,-1.327,0.657
1.121,0.022,-2.634,-2.657,1.306,1.34,-2.646,0.59,0.543,0.309,-0.605,-1.794,-1.322,0.312,-1.329,0.658
1.122,0.025,-2.631,-2.657,1.303,1.341,-2.644,0.579,0.54,0.309,-0.606,-1.794,-1.32,0.317,-1.331,0.658
1.123,0.024,-2.63,-2.654,1.302,1.339,-2.642,0.571,0.538,0.309,-0.604,-1.79,-1.317,0.32,-1.33,0.658
1.124,0.026,-2.63,-2.657,1.302,1.342,-2.644,0.567,0.539,0.31,-0.599,-1.786,-1.313,0.323,-1.328,0.664
1.125,0.029,-2.635,-2.664,1.304,1.347,-2.65,0.565,0.537,0.307,-0.596,-1.785,-1.313,0.326,-1.33,0.67
1.126,0.029,-2.639,-2.667,1.304,1.348,-2.653,0.561,0.533,0.305,-0.598,-1.784,-1.312,0.33,-1.331,0.674
1.127,0.029,-2.64,-2.669,1.306,1.349,-2.655,0.549,0.522,0.301,-0.598,-1.785,-1.313,0.329,-1.335,0.68
1.128,0.029,-2.646,-2.675,1.308,1.353,-2.66,0.54,0.515,0.299,-0.597,-1.784,-1.312,0.331,-1.338,0.688
1.129,0.036,-2.646,-2.683,1.305,1.359,-2.664,0.538,0.517,0.301,-0.596,-1.78,-1.308,0.336,-1.337,0.69
1.13,0.042,-2.642,-2.684,1.3,1.363,-2.663,0.539,0.521,0.305,-0.591,-1.778,-1.307,0.34,-1.333,0.689
1.131,0.044,-2.648,-2.693,1.302,1.369,-2.671,0.541,0.528,0.309,-0.587,-1.774,-1.305,0.344,-1.333,0.692
1.132,0.048,-2.659,-2.707,1.306,1.377,-2.683,0.534,0.525,0.305,-0.589,-1.776,-1.304,0.346,-1.339,0.703
1.133,0.049,-2.662,-2.712,1.306,1.381,-2.687,0.529,0.521,0.303,-0.591,-1.776,-1.304,0.348,-1.339,0.708
1.134,0.05,-2.666,-2.716,1.308,1.383,-2.691,0.525,0.519,0.304,-0.593,-1.776,-1.304,0.349,-1.339,0.71
1.135,0.048,-2.668,-2.716,1.31,1.381,-2.692,0.521,0.514,0.302,-0.597,-1.777,-1.304,0.348,-1.341,0.712
1.136,0.045,-2.672,-2.718,1.313,1.381,-2.695,0.522,0.512,0.299,-0.6,-1.78,-1.306,0.346,-1.344,0.713
1.137,0.044,-2.679,-2.724,1.317,1.384,-2.701,0.524,0.509,0.295,-0.603,-1.782,-1.308,0.346,-1.347,0.717
1.138,0.042,-2.685,-2.728,1.321,1.385,-2.707,0.523,0.505,0.289,-0.609,-1.787,-1.312,0.342,-1.348,0.722
1.139,0.041,-2.696,-2.738,1.328,1.389,-2.717,0.522,0.502,0.283,-0.615,-1.792,-1.315,0.34,-1.351,0.729
1.14,0.038,-2.708,-2.747,1.335,1.392,-2.727,0.524,0.499,0.281,-0.617,-1.794,-1.316,0.338,-1.357,0.731
1.141,0.035,-2.712,-2.748,1.339,1.391,-2.729,0.527,0.499,0.282,-0.619,-1.794,-1.317,0.336,-1.359,0.731
1.142,0.033,-2.716,-2.748,1.341,1.391,-2.732,0.526,0.497,0.279,-0.623,-1.794,-1.317,0.336,-1.357,0.733
1.143,0.032,-2.72,-2.752,1.345,1.391,-2.736,0.526,0.495,0.276,-0.624,-1.797,-1.321,0.334,-1.358,0.737
1.144,0.033,-2.724,-2.757,1.345,1.395,-2.74,0.528,0.495,0.275,-0.624,-1.797,-1.318,0.335,-1.359,0.739
1.145,0.034,-2.727,-2.761,1.347,1.398,-2.744,0.528,0.496,0.274,-0.622,-1.794,-1.317,0.336,-1.363,0.74
1.146,0.032,-2.729,-2.761,1.349,1.397,-2.745,0.527,0.495,0.272,-0.621,-1.794,-1.317,0.335,-1.364,0.741
1.147,0.032,-2.73,-2.763,1.349,1.397,-2.746,0.528,0.495,0.271,-0.623,-1.797,-1.319,0.334,-1.364,0.74
1.148,0.03,-2.733,-2.764,1.351,1.397,-2.748,0.527,0.495,0.271,-0.624,-1.798,-1.32,0.333,-1.367,0.74
1.149,0.03,-2.737,-2.767,1.353,1.399,-2.752,0.527,0.493,0.266,-0.626,-1.799,-1.321,0.333,-1.369,0.743
1.15,0.031,-2.734,-2.765,1.351,1.398,-2.749,0.525,0.487,0.261,-0.63,-1.801,-1.323,0.33,-1.365,0.747
1.151,0.027,-2.734,-2.761,1.353,1.395,-2.748,0.528,0.487,0.26,-0.63,-1.801,-1.323,0.328,-1.365,0.746
1.152,0.024,-2.736,-2.76,1.355,1.392,-2.748,0.531,0.489,0.259,-0.63,-1.802,-1.324,0.326,-1.363,0.745
1.153,0.017,-2.736,-2.753,1.359,1.385,-2.744,0.531,0.488,0.255,-0.634,-1.806,-1.327,0.322,-1.359,0.746
1.154,0.007,-2.737,-2.744,1.365,1.375,-2.74,0.534,0.488,0.258,-0.636,-1.808,-1.33,0.317,-1.355,0.741
1.155,0.002,-2.735,-2.737,1.366,1.369,-2.736,0.535,0.486,0.259,-0.637,-1.81,-1.333,0.314,-1.35,0.737
1.156,-0.004,-2.735,-2.732,1.369,1.364,-2.733,0.538,0.484,0.256,-0.639,-1.813,-1.335,0.309,-1.347,0.735
1.157,-0.006,-2.739,-2.732,1.373,1.363,-2.736,0.536,0.48,0.251,-0.643,-1.817,-1.34,0.303,-1.347,0.741
1.158,-0.009,-2.744,-2.736,1.377,1.363,-2.74,0.532,0.471,0.242,-0.654,-1.823,-1.345,0.299,-1.349,0.749
1.159,-0.013,-2.751,-2.739,1.382,1.363,-2.744,0.53,0.463,0.233,-0.661,-1.829,-1.351,0.294,-1.355,0.752
1.16,-0.018,-2.758,-2.741,1.388,1.361,-2.749,0.532,0.46,0.23,-0.665,-1.835,-1.355,0.289,-1.363,0.755
1.161,-0.022,-2.761,-2.74,1.391,1.359,-2.75,0.533,0.461,0.231,-0.667,-1.837,-1.355,0.287,-1.363,0.756
1.162,-0.024,-2.764,-2.74,1.393,1.359,-2.752,0.534,0.464,0.232,-0.67,-1.839,-1.359,0.285,-1.36,0.759
1.163,-0.026,-2.768,-2.743,1.397,1.358,-2.756,0.539,0.467,0.234,-0.67,-1.843,-1.363,0.281,-1.359,0.761
1.164,-0.028,-2.775,-2.748,1.401,1.361,-2.761,0.541,0.467,0.23,-0.671,-1.845,-1.368,0.276,-1.361,0.763
1.165,-0.032,-2.785,-2.754,1.408,1.361,-2.769,0.544,0.466,0.227,-0.674,-1.849,-1.371,0.273,-1.365,0.768
1.166,-0.034,-2.789,-2.756,1.412,1.361,-2.773,0.544,0.464,0.226,-0.675,-1.852,-1.373,0.272,-1.367,0.771
1.167,-0.034,-2.793,-2.76,1.413,1.363,-2.776,0.541,0.462,0.222,-0.679,-1.854,-1.377,0.271,-1.368,0.774
1.168,-0.033,-2.796,-2.764,1.415,1.365,-2.78,0.54,0.462,0.223,-0.68,-1.856,-1.377,0.27,-1.367,0.778
1.169,-0.034,-2.8,-2.765,1.417,1.365,-2.782,0.54,0.462,0.223,-0.682,-1.857,-1.379,0.268,-1.369,0.778
1.17,-0.037,-2.799,-2.763,1.418,1.363,-2.78,0.541,0.46,0.221,-0.683,-1.857,-1.381,0.266,-1.369,0.777
1.171,-0.04,-2.8,-2.76,1.419,1.361,-2.78,0.541,0.459,0.219,-0.685,-1.859,-1.38,0.267,-1.368,0.778
1.172,-0.041,-2.805,-2.765,1.423,1.363,-2.785,0.539,0.458,0.216,-0.685,-1.86,-1.379,0.266,-1.371,0.78
1.173,-0.037,-2.806,-2.769,1.422,1.365,-2.787,0.538,0.455,0.215,-0.685,-1.861,-1.379,0.266,-1.372,0.782
1.174,-0.035,-2.804,-2.769,1.419,1.367,-2.786,0.534,0.455,0.215,-0.689,-1.863,-1.38,0.267,-1.371,0.783
