'Elapsed time','i','ii','iii','avr','avl','avf','v1','v2','v3','v4','v5','v6','vx','vy','vz'
'seconds','mV','mV','mV','mV','mV','mV','mV','mV','mV','mV','mV','mV','mV','mV','mV'
0,-1.885,-0.494,1.391,1.19,-1.637,0.448,0.526,0.438,-0.137,-0.661,-0.586,-0.68,-0.182,-0.544,-0.339
0.001,-1.885,-0.488,1.397,1.187,-1.641,0.455,0.533,0.446,-0.13,-0.656,-0.58,-0.676,-0.18,-0.55,-0.338
0.002,-1.875,-0.48,1.395,1.177,-1.635,0.458,0.536,0.452,-0.126,-0.651,-0.577,-0.673,-0.176,-0.552,-0.338
0.003,-1.867,-0.475,1.392,1.171,-1.629,0.459,0.539,0.454,-0.123,-0.651,-0.576,-0.672,-0.175,-0.555,-0.337
0.004,-1.873,-0.483,1.39,1.178,-1.631,0.454,0.538,0.452,-0.126,-0.652,-0.579,-0.675,-0.176,-0.556,-0.337
0.005,-1.877,-0.487,1.391,1.182,-1.633,0.452,0.534,0.448,-0.129,-0.655,-0.582,-0.677,-0.178,-0.553,-0.337
0.006,-1.879,-0.487,1.391,1.183,-1.635,0.452,0.534,0.448,-0.128,-0.656,-0.583,-0.679,-0.184,-0.551,-0.338
0.007,-1.879,-0.487,1.391,1.183,-1.635,0.452,0.538,0.454,-0.124,-0.654,-0.582,-0.678,-0.188,-0.554,-0.341
0.008,-1.871,-0.484,1.387,1.177,-1.629,0.452,0.541,0.459,-0.119,-0.65,-0.578,-0.674,-0.189,-0.558,-0.342
0.009,-1.865,-0.486,1.379,1.175,-1.622,0.447,0.542,0.458,-0.117,-0.649,-0.577,-0.675,-0.191,-0.559,-0.344
0.01,-1.867,-0.49,1.376,1.179,-1.621,0.443,0.54,0.455,-0.121,-0.653,-0.581,-0.679,-0.189,-0.56,-0.344
0.011,-1.871,-0.492,1.379,1.182,-1.625,0.444,0.538,0.455,-0.122,-0.654,-0.582,-0.68,-0.188,-0.565,-0.344
0.012,-1.877,-0.492,1.385,1.184,-1.631,0.446,0.538,0.457,-0.12,-0.654,-0.581,-0.68,-0.191,-0.566,-0.343
0.013,-1.883,-0.497,1.385,1.19,-1.634,0.444,0.543,0.457,-0.12,-0.655,-0.584,-0.683,-0.193,-0.568,-0.343
0.014,-1.888,-0.509,1.379,1.198,-1.633,0.434,0.547,0.457,-0.12,-0.655,-0.585,-0.682,-0.192,-0.574,-0.344
0.015,-1.892,-0.518,1.374,1.205,-1.633,0.428,0.543,0.458,-0.12,-0.657,-0.586,-0.683,-0.19,-0.573,-0.344
0.016,-1.889,-0.512,1.377,1.2,-1.633,0.432,0.541,0.456,-0.122,-0.66,-0.59,-0.686,-0.191,-0.569,-0.345
0.017,-1.883,-0.505,1.378,1.194,-1.631,0.436,0.542,0.457,-0.122,-0.658,-0.591,-0.686,-0.189,-0.565,-0.346
0.018,-1.881,-0.501,1.38,1.192,-1.631,0.44,0.541,0.459,-0.12,-0.658,-0.589,-0.685,-0.191,-0.566,-0.345
0.019,-1.881,-0.5,1.381,1.191,-1.631,0.441,0.543,0.459,-0.12,-0.658,-0.588,-0.685,-0.192,-0.569,-0.344
0.02,-1.883,-0.504,1.379,1.194,-1.631,0.437,0.543,0.46,-0.122,-0.659,-0.589,-0.685,-0.19,-0.573,-0.343
0.021,-1.888,-0.512,1.376,1.2,-1.632,0.432,0.543,0.46,-0.122,-0.661,-0.59,-0.686,-0.188,-0.577,-0.343
0.022,-1.895,-0.522,1.372,1.209,-1.633,0.424,0.543,0.456,-0.126,-0.663,-0.594,-0.688,-0.186,-0.581,-0.343
0.023,-1.897,-0.528,1.369,1.212,-1.633,0.42,0.54,0.457,-0.129,-0.666,-0.596,-0.689,-0.183,-0.581,-0.342
0.024,-1.897,-0.53,1.367,1.214,-1.631,0.418,0.54,0.458,-0.129,-0.668,-0.596,-0.689,-0.181,-0.584,-0.339
0.025,-1.905,-0.537,1.367,1.221,-1.636,0.415,0.537,0.455,-0.131,-0.672,-0.599,-0.692,-0.179,-0.587,-0.338
0.026,-1.915,-0.549,1.365,1.232,-1.641,0.408,0.534,0.449,-0.137,-0.678,-0.605,-0.698,-0.177,-0.588,-0.338
0.027,-1.909,-0.544,1.365,1.227,-1.637,0.41,0.537,0.449,-0.136,-0.678,-0.602,-0.697,-0.178,-0.588,-0.336
0.028,-1.909,-0.536,1.373,1.222,-1.641,0.418,0.536,0.454,-0.134,-0.677,-0.602,-0.695,-0.179,-0.584,-0.336
0.029,-1.913,-0.538,1.375,1.225,-1.643,0.418,0.533,0.452,-0.138,-0.68,-0.604,-0.698,-0.183,-0.581,-0.336
0.03,-1.899,-0.527,1.371,1.213,-1.635,0.422,0.538,0.455,-0.133,-0.676,-0.599,-0.694,-0.185,-0.585,-0.336
0.031,-1.881,-0.516,1.365,1.198,-1.623,0.424,0.543,0.461,-0.126,-0.669,-0.595,-0.688,-0.186,-0.59,-0.334
0.032,-1.879,-0.512,1.365,1.196,-1.622,0.426,0.55,0.462,-0.127,-0.669,-0.594,-0.686,-0.191,-0.587,-0.337
0.033,-1.873,-0.507,1.366,1.19,-1.619,0.429,0.55,0.462,-0.126,-0.668,-0.592,-0.684,-0.193,-0.582,-0.338
0.034,-1.864,-0.499,1.365,1.181,-1.615,0.433,0.544,0.465,-0.122,-0.665,-0.589,-0.682,-0.195,-0.588,-0.338
0.035,-1.869,-0.502,1.367,1.185,-1.618,0.432,0.547,0.462,-0.124,-0.666,-0.589,-0.683,-0.195,-0.592,-0.339
0.036,-1.871,-0.508,1.363,1.19,-1.617,0.427,0.543,0.459,-0.127,-0.671,-0.592,-0.685,-0.195,-0.591,-0.338
0.037,-1.873,-0.508,1.365,1.19,-1.619,0.428,0.544,0.459,-0.127,-0.671,-0.591,-0.686,-0.195,-0.59,-0.337
0.038,-1.883,-0.517,1.367,1.2,-1.625,0.424,0.549,0.457,-0.13,-0.671,-0.593,-0.688,-0.195,-0.593,-0.338
0.039,-1.894,-0.53,1.364,1.212,-1.629,0.417,0.547,0.453,-0.136,-0.676,-0.597,-0.693,-0.197,-0.595,-0.34
0.04,-1.878,-0.519,1.359,1.198,-1.618,0.419,0.547,0.452,-0.135,-0.675,-0.594,-0.69,-0.194,-0.594,-0.338
0.041,-1.869,-0.51,1.359,1.189,-1.613,0.424,0.55,0.459,-0.129,-0.67,-0.587,-0.684,-0.191,-0.599,-0.34
0.042,-1.881,-0.52,1.361,1.201,-1.621,0.42,0.547,0.454,-0.133,-0.674,-0.59,-0.688,-0.192,-0.601,-0.342
0.043,-1.884,-0.524,1.36,1.204,-1.622,0.418,0.542,0.447,-0.139,-0.679,-0.594,-0.691,-0.19,-0.598,-0.342
0.044,-1.88,-0.52,1.359,1.2,-1.619,0.419,0.542,0.446,-0.142,-0.681,-0.593,-0.691,-0.189,-0.598,-0.342
0.045,-1.883,-0.524,1.359,1.204,-1.621,0.417,0.538,0.439,-0.145,-0.682,-0.596,-0.693,-0.193,-0.597,-0.34
0.046,-1.893,-0.531,1.363,1.212,-1.628,0.416,0.536,0.436,-0.147,-0.686,-0.598,-0.695,-0.197,-0.594,-0.338
0.047,-1.893,-0.531,1.361,1.212,-1.627,0.415,0.539,0.438,-0.148,-0.685,-0.595,-0.694,-0.195,-0.594,-0.336
0.048,-1.889,-0.528,1.362,1.208,-1.626,0.417,0.537,0.432,-0.151,-0.686,-0.597,-0.695,-0.195,-0.592,-0.336
0.049,-1.889,-0.527,1.361,1.208,-1.625,0.417,0.537,0.431,-0.153,-0.688,-0.598,-0.695,-0.195,-0.591,-0.334
0.05,-1.895,-0.533,1.362,1.214,-1.629,0.414,0.535,0.429,-0.155,-0.69,-0.6,-0.697,-0.197,-0.589,-0.331
0.051,-1.897,-0.536,1.361,1.217,-1.629,0.412,0.532,0.424,-0.159,-0.692,-0.601,-0.697,-0.197,-0.587,-0.329
0.052,-1.891,-0.531,1.361,1.212,-1.626,0.414,0.533,0.423,-0.159,-0.689,-0.599,-0.694,-0.195,-0.587,-0.328
0.053,-1.891,-0.532,1.358,1.211,-1.624,0.413,0.53,0.42,-0.162,-0.691,-0.6,-0.695,-0.195,-0.585,-0.328
0.054,-1.893,-0.535,1.358,1.214,-1.625,0.411,0.528,0.416,-0.166,-0.693,-0.601,-0.694,-0.193,-0.585,-0.325
0.055,-1.896,-0.533,1.363,1.215,-1.629,0.415,0.527,0.413,-0.167,-0.693,-0.601,-0.695,-0.193,-0.584,-0.32
0.056,-1.891,-0.53,1.361,1.211,-1.627,0.415,0.527,0.413,-0.168,-0.692,-0.599,-0.694,-0.189,-0.581,-0.319
0.057,-1.883,-0.524,1.358,1.204,-1.621,0.417,0.526,0.41,-0.169,-0.689,-0.596,-0.693,-0.19,-0.579,-0.32
0.058,-1.876,-0.517,1.359,1.196,-1.617,0.421,0.524,0.408,-0.171,-0.686,-0.592,-0.69,-0.193,-0.578,-0.317
0.059,-1.877,-0.516,1.361,1.196,-1.619,0.423,0.525,0.408,-0.169,-0.683,-0.588,-0.688,-0.194,-0.581,-0.317
0.06,-1.875,-0.516,1.36,1.196,-1.617,0.422,0.529,0.407,-0.169,-0.682,-0.585,-0.686,-0.193,-0.583,-0.319
0.061,-1.871,-0.512,1.359,1.191,-1.615,0.423,0.531,0.407,-0.169,-0.68,-0.583,-0.682,-0.192,-0.579,-0.318
0.062,-1.875,-0.513,1.361,1.194,-1.618,0.423,0.528,0.405,-0.171,-0.679,-0.582,-0.683,-0.194,-0.576,-0.32
0.063,-1.883,-0.515,1.367,1.199,-1.625,0.426,0.525,0.399,-0.176,-0.682,-0.583,-0.684,-0.198,-0.578,-0.323
0.064,-1.885,-0.517,1.367,1.201,-1.626,0.425,0.517,0.389,-0.182,-0.687,-0.587,-0.688,-0.196,-0.575,-0.322
0.065,-1.897,-0.531,1.365,1.214,-1.631,0.417,0.507,0.384,-0.187,-0.691,-0.59,-0.692,-0.195,-0.572,-0.323
0.066,-1.9,-0.534,1.366,1.217,-1.633,0.416,0.508,0.384,-0.188,-0.69,-0.588,-0.689,-0.194,-0.573,-0.323
0.067,-1.884,-0.522,1.361,1.204,-1.623,0.419,0.509,0.383,-0.187,-0.689,-0.585,-0.686,-0.193,-0.572,-0.322
0.068,-1.883,-0.522,1.361,1.202,-1.621,0.419,0.508,0.379,-0.191,-0.692,-0.588,-0.688,-0.192,-0.572,-0.32
0.069,-1.881,-0.525,1.356,1.203,-1.619,0.415,0.509,0.378,-0.193,-0.692,-0.589,-0.688,-0.188,-0.572,-0.317
0.07,-1.879,-0.525,1.355,1.202,-1.617,0.414,0.508,0.374,-0.194,-0.692,-0.588,-0.689,-0.186,-0.57,-0.317
0.071,-1.884,-0.528,1.355,1.206,-1.619,0.413,0.506,0.369,-0.196,-0.693,-0.589,-0.689,-0.185,-0.569,-0.317
0.072,-1.891,-0.532,1.359,1.212,-1.625,0.413,0.507,0.37,-0.198,-0.693,-0.589,-0.688,-0.182,-0.567,-0.313
0.073,-1.891,-0.534,1.356,1.212,-1.623,0.41,0.507,0.37,-0.198,-0.693,-0.587,-0.686,-0.178,-0.565,-0.307
0.074,-1.878,-0.527,1.351,1.202,-1.615,0.412,0.508,0.37,-0.195,-0.689,-0.582,-0.682,-0.178,-0.561,-0.305
0.075,-1.875,-0.517,1.357,1.196,-1.615,0.419,0.51,0.367,-0.195,-0.689,-0.579,-0.68,-0.182,-0.558,-0.308
0.076,-1.869,-0.511,1.357,1.19,-1.613,0.423,0.51,0.369,-0.193,-0.684,-0.575,-0.675,-0.182,-0.558,-0.308
0.077,-1.861,-0.507,1.354,1.184,-1.607,0.423,0.507,0.369,-0.195,-0.685,-0.577,-0.675,-0.183,-0.558,-0.306
0.078,-1.873,-0.513,1.36,1.194,-1.617,0.423,0.505,0.362,-0.2,-0.687,-0.577,-0.678,-0.188,-0.556,-0.31
0.079,-1.889,-0.52,1.369,1.204,-1.629,0.424,0.5,0.361,-0.203,-0.688,-0.577,-0.679,-0.192,-0.556,-0.313
0.08,-1.883,-0.516,1.367,1.2,-1.625,0.425,0.497,0.361,-0.204,-0.689,-0.58,-0.679,-0.192,-0.558,-0.312
0.081,-1.873,-0.503,1.371,1.188,-1.622,0.433,0.504,0.363,-0.203,-0.685,-0.575,-0.674,-0.192,-0.558,-0.313
0.082,-1.867,-0.496,1.371,1.181,-1.619,0.438,0.504,0.363,-0.202,-0.685,-0.573,-0.671,-0.191,-0.555,-0.311
0.083,-1.864,-0.491,1.373,1.177,-1.619,0.441,0.502,0.36,-0.201,-0.686,-0.575,-0.672,-0.192,-0.554,-0.309
0.084,-1.869,-0.493,1.375,1.181,-1.623,0.441,0.5,0.356,-0.205,-0.691,-0.578,-0.674,-0.194,-0.552,-0.309
0.085,-1.877,-0.5,1.376,1.188,-1.626,0.438,0.498,0.35,-0.214,-0.696,-0.584,-0.679,-0.194,-0.553,-0.306
0.086,-1.883,-0.51,1.373,1.197,-1.629,0.431,0.497,0.347,-0.218,-0.7,-0.589,-0.683,-0.196,-0.557,-0.307
0.087,-1.885,-0.515,1.371,1.2,-1.628,0.428,0.496,0.345,-0.218,-0.701,-0.588,-0.683,-0.195,-0.553,-0.306
0.088,-1.879,-0.507,1.372,1.194,-1.625,0.432,0.501,0.346,-0.218,-0.699,-0.586,-0.681,-0.197,-0.554,-0.302
0.089,-1.88,-0.505,1.375,1.192,-1.627,0.434,0.502,0.345,-0.221,-0.699,-0.585,-0.679,-0.196,-0.554,-0.302
0.09,-1.877,-0.5,1.377,1.189,-1.627,0.439,0.503,0.345,-0.221,-0.699,-0.583,-0.677,-0.196,-0.551,-0.304
0.091,-1.87,-0.5,1.369,1.185,-1.62,0.434,0.505,0.347,-0.225,-0.702,-0.584,-0.676,-0.197,-0.554,-0.302
0.092,-1.869,-0.503,1.367,1.186,-1.619,0.432,0.504,0.348,-0.222,-0.7,-0.583,-0.674,-0.196,-0.552,-0.302
0.093,-1.875,-0.5,1.375,1.188,-1.625,0.437,0.506,0.346,-0.22,-0.699,-0.582,-0.674,-0.196,-0.547,-0.303
0.094,-1.873,-0.492,1.381,1.183,-1.627,0.445,0.508,0.344,-0.222,-0.7,-0.585,-0.675,-0.196,-0.543,-0.304
0.095,-1.871,-0.487,1.383,1.179,-1.627,0.449,0.506,0.343,-0.225,-0.705,-0.588,-0.675,-0.197,-0.541,-0.304
0.096,-1.874,-0.492,1.381,1.183,-1.628,0.445,0.505,0.343,-0.229,-0.706,-0.588,-0.675,-0.198,-0.541,-0.306
0.097,-1.875,-0.49,1.385,1.183,-1.63,0.447,0.507,0.342,-0.229,-0.706,-0.588,-0.675,-0.2,-0.535,-0.308
0.098,-1.871,-0.49,1.382,1.181,-1.627,0.446,0.508,0.342,-0.23,-0.706,-0.589,-0.673,-0.2,-0.539,-0.307
0.099,-1.87,-0.494,1.376,1.182,-1.623,0.441,0.51,0.341,-0.23,-0.706,-0.588,-0.672,-0.199,-0.547,-0.308
0.1,-1.875,-0.499,1.376,1.188,-1.625,0.439,0.509,0.339,-0.233,-0.712,-0.593,-0.677,-0.2,-0.545,-0.308
0.101,-1.878,-0.503,1.375,1.19,-1.627,0.436,0.505,0.337,-0.235,-0.714,-0.595,-0.678,-0.201,-0.547,-0.306
0.102,-1.881,-0.504,1.376,1.192,-1.629,0.436,0.503,0.334,-0.237,-0.716,-0.597,-0.679,-0.201,-0.547,-0.304
0.103,-1.883,-0.503,1.38,1.194,-1.631,0.438,0.506,0.335,-0.237,-0.717,-0.598,-0.683,-0.202,-0.544,-0.304
0.104,-1.883,-0.504,1.379,1.194,-1.631,0.437,0.507,0.335,-0.237,-0.715,-0.599,-0.683,-0.199,-0.545,-0.299
0.105,-1.893,-0.515,1.377,1.204,-1.635,0.431,0.503,0.33,-0.242,-0.719,-0.602,-0.688,-0.196,-0.543,-0.295
0.106,-1.901,-0.524,1.377,1.212,-1.639,0.427,0.501,0.323,-0.248,-0.726,-0.607,-0.691,-0.198,-0.542,-0.293
0.107,-1.907,-0.527,1.381,1.217,-1.644,0.427,0.502,0.32,-0.252,-0.73,-0.611,-0.692,-0.196,-0.542,-0.288
0.108,-1.923,-0.536,1.387,1.23,-1.655,0.425,0.501,0.32,-0.256,-0.733,-0.613,-0.695,-0.197,-0.545,-0.288
0.109,-1.924,-0.538,1.385,1.232,-1.655,0.423,0.5,0.32,-0.257,-0.734,-0.614,-0.696,-0.196,-0.546,-0.286
0.11,-1.917,-0.532,1.385,1.224,-1.651,0.426,0.505,0.324,-0.253,-0.731,-0.608,-0.694,-0.194,-0.545,-0.287
0.111,-1.915,-0.532,1.383,1.224,-1.649,0.425,0.508,0.321,-0.256,-0.732,-0.609,-0.691,-0.194,-0.545,-0.291
0.112,-1.915,-0.531,1.383,1.223,-1.649,0.426,0.508,0.319,-0.259,-0.735,-0.612,-0.692,-0.2,-0.544,-0.291
0.113,-1.911,-0.525,1.386,1.218,-1.649,0.43,0.512,0.323,-0.256,-0.735,-0.609,-0.69,-0.203,-0.541,-0.291
0.114,-1.897,-0.514,1.383,1.206,-1.64,0.434,0.515,0.324,-0.254,-0.733,-0.608,-0.684,-0.201,-0.537,-0.288
0.115,-1.875,-0.495,1.381,1.185,-1.628,0.443,0.519,0.329,-0.249,-0.728,-0.601,-0.677,-0.203,-0.535,-0.288
0.116,-1.866,-0.483,1.383,1.175,-1.625,0.45,0.526,0.335,-0.246,-0.725,-0.597,-0.671,-0.204,-0.536,-0.289
0.117,-1.861,-0.475,1.385,1.169,-1.623,0.455,0.529,0.337,-0.246,-0.724,-0.598,-0.669,-0.206,-0.538,-0.292
0.118,-1.856,-0.468,1.388,1.162,-1.622,0.46,0.53,0.338,-0.246,-0.723,-0.596,-0.668,-0.204,-0.539,-0.294
0.119,-1.872,-0.48,1.391,1.176,-1.632,0.456,0.524,0.334,-0.249,-0.727,-0.597,-0.671,-0.206,-0.539,-0.295
0.12,-1.881,-0.491,1.391,1.187,-1.636,0.45,0.516,0.328,-0.255,-0.733,-0.602,-0.674,-0.208,-0.539,-0.294
0.121,-1.877,-0.487,1.39,1.183,-1.634,0.451,0.514,0.326,-0.257,-0.735,-0.603,-0.674,-0.206,-0.541,-0.289
0.122,-1.882,-0.487,1.394,1.185,-1.638,0.453,0.515,0.327,-0.257,-0.735,-0.604,-0.676,-0.208,-0.543,-0.291
0.123,-1.884,-0.493,1.391,1.188,-1.637,0.45,0.516,0.328,-0.256,-0.737,-0.605,-0.676,-0.207,-0.543,-0.29
0.124,-1.881,-0.495,1.386,1.188,-1.634,0.446,0.517,0.329,-0.256,-0.737,-0.603,-0.674,-0.206,-0.545,-0.289
0.125,-1.876,-0.488,1.387,1.183,-1.632,0.45,0.519,0.33,-0.257,-0.737,-0.602,-0.672,-0.205,-0.544,-0.288
0.126,-1.873,-0.488,1.385,1.181,-1.629,0.449,0.516,0.329,-0.258,-0.739,-0.603,-0.673,-0.204,-0.543,-0.286
0.127,-1.885,-0.496,1.389,1.19,-1.637,0.447,0.514,0.325,-0.261,-0.744,-0.609,-0.678,-0.209,-0.542,-0.287
0.128,-1.892,-0.5,1.391,1.196,-1.641,0.446,0.517,0.326,-0.262,-0.744,-0.61,-0.678,-0.21,-0.542,-0.287
0.129,-1.892,-0.499,1.393,1.196,-1.642,0.447,0.514,0.323,-0.264,-0.747,-0.612,-0.681,-0.211,-0.539,-0.29
0.13,-1.895,-0.5,1.395,1.198,-1.645,0.448,0.515,0.319,-0.268,-0.75,-0.615,-0.683,-0.214,-0.535,-0.292
0.131,-1.895,-0.503,1.392,1.199,-1.643,0.445,0.515,0.321,-0.268,-0.749,-0.613,-0.682,-0.213,-0.537,-0.289
0.132,-1.893,-0.504,1.389,1.199,-1.641,0.443,0.513,0.322,-0.267,-0.749,-0.612,-0.682,-0.21,-0.537,-0.287
0.133,-1.903,-0.512,1.391,1.207,-1.647,0.44,0.514,0.32,-0.271,-0.751,-0.615,-0.683,-0.208,-0.534,-0.286
0.134,-1.917,-0.524,1.393,1.22,-1.655,0.434,0.511,0.317,-0.274,-0.754,-0.618,-0.686,-0.206,-0.536,-0.287
0.135,-1.915,-0.523,1.391,1.219,-1.653,0.434,0.512,0.317,-0.274,-0.752,-0.615,-0.685,-0.204,-0.535,-0.286
0.136,-1.91,-0.521,1.389,1.216,-1.649,0.434,0.513,0.318,-0.274,-0.752,-0.616,-0.685,-0.205,-0.532,-0.283
0.137,-1.919,-0.528,1.391,1.224,-1.655,0.431,0.512,0.319,-0.275,-0.755,-0.619,-0.688,-0.206,-0.536,-0.283
0.138,-1.918,-0.526,1.391,1.222,-1.655,0.432,0.512,0.319,-0.275,-0.754,-0.618,-0.688,-0.204,-0.537,-0.281
0.139,-1.909,-0.522,1.387,1.216,-1.647,0.432,0.514,0.32,-0.274,-0.753,-0.618,-0.686,-0.202,-0.539,-0.281
0.14,-1.907,-0.521,1.386,1.214,-1.647,0.432,0.517,0.32,-0.274,-0.752,-0.618,-0.686,-0.203,-0.541,-0.283
0.141,-1.907,-0.517,1.389,1.212,-1.648,0.435,0.515,0.321,-0.274,-0.751,-0.621,-0.69,-0.206,-0.539,-0.285
0.142,-1.907,-0.511,1.396,1.209,-1.651,0.443,0.516,0.32,-0.274,-0.754,-0.622,-0.69,-0.21,-0.54,-0.286
0.143,-1.899,-0.505,1.395,1.202,-1.647,0.445,0.514,0.317,-0.276,-0.755,-0.62,-0.69,-0.21,-0.539,-0.284
0.144,-1.901,-0.505,1.395,1.203,-1.647,0.445,0.511,0.318,-0.276,-0.755,-0.623,-0.691,-0.209,-0.54,-0.283
0.145,-1.911,-0.51,1.401,1.21,-1.655,0.446,0.515,0.318,-0.278,-0.756,-0.624,-0.692,-0.21,-0.542,-0.282
0.146,-1.909,-0.514,1.395,1.212,-1.652,0.44,0.516,0.319,-0.278,-0.755,-0.623,-0.693,-0.21,-0.539,-0.282
0.147,-1.908,-0.515,1.393,1.212,-1.651,0.44,0.513,0.319,-0.276,-0.755,-0.621,-0.692,-0.207,-0.538,-0.281
0.148,-1.913,-0.513,1.401,1.214,-1.657,0.444,0.513,0.318,-0.275,-0.757,-0.623,-0.693,-0.208,-0.533,-0.281
0.149,-1.909,-0.507,1.401,1.208,-1.655,0.447,0.515,0.319,-0.275,-0.757,-0.625,-0.692,-0.209,-0.527,-0.28
0.15,-1.895,-0.499,1.397,1.197,-1.646,0.449,0.518,0.325,-0.272,-0.752,-0.619,-0.685,-0.209,-0.526,-0.28
0.151,-1.888,-0.498,1.391,1.193,-1.639,0.447,0.517,0.328,-0.269,-0.748,-0.615,-0.68,-0.211,-0.528,-0.281
0.152,-1.883,-0.494,1.389,1.188,-1.635,0.447,0.518,0.328,-0.268,-0.748,-0.615,-0.678,-0.213,-0.532,-0.282
0.153,-1.887,-0.496,1.391,1.192,-1.639,0.447,0.518,0.326,-0.27,-0.748,-0.616,-0.679,-0.213,-0.534,-0.283
0.154,-1.893,-0.5,1.393,1.197,-1.643,0.446,0.513,0.323,-0.272,-0.75,-0.618,-0.681,-0.216,-0.534,-0.285
0.155,-1.897,-0.499,1.397,1.198,-1.647,0.449,0.514,0.324,-0.272,-0.75,-0.617,-0.681,-0.217,-0.533,-0.285
0.156,-1.901,-0.5,1.401,1.2,-1.651,0.451,0.514,0.325,-0.272,-0.749,-0.617,-0.678,-0.216,-0.53,-0.285
0.157,-1.899,-0.498,1.401,1.199,-1.651,0.452,0.515,0.325,-0.275,-0.749,-0.617,-0.677,-0.218,-0.531,-0.285
0.158,-1.893,-0.497,1.395,1.196,-1.645,0.449,0.514,0.325,-0.272,-0.746,-0.613,-0.676,-0.217,-0.536,-0.286
0.159,-1.89,-0.497,1.392,1.194,-1.641,0.447,0.511,0.324,-0.272,-0.748,-0.614,-0.676,-0.216,-0.537,-0.287
0.16,-1.895,-0.503,1.391,1.199,-1.643,0.444,0.516,0.322,-0.274,-0.75,-0.617,-0.678,-0.216,-0.538,-0.286
0.161,-1.897,-0.504,1.392,1.2,-1.645,0.444,0.52,0.324,-0.275,-0.75,-0.615,-0.676,-0.215,-0.54,-0.285
0.162,-1.883,-0.494,1.389,1.188,-1.637,0.448,0.515,0.321,-0.277,-0.75,-0.615,-0.675,-0.214,-0.534,-0.285
0.163,-1.878,-0.486,1.391,1.182,-1.635,0.453,0.515,0.326,-0.271,-0.747,-0.614,-0.672,-0.214,-0.53,-0.283
0.164,-1.887,-0.488,1.399,1.188,-1.643,0.455,0.523,0.336,-0.265,-0.742,-0.61,-0.672,-0.216,-0.535,-0.287
0.165,-1.877,-0.485,1.391,1.181,-1.635,0.454,0.52,0.33,-0.266,-0.744,-0.609,-0.674,-0.216,-0.531,-0.286
0.166,-1.875,-0.487,1.389,1.181,-1.632,0.451,0.515,0.327,-0.27,-0.747,-0.614,-0.675,-0.216,-0.53,-0.285
0.167,-1.887,-0.489,1.397,1.188,-1.641,0.454,0.515,0.33,-0.267,-0.745,-0.611,-0.674,-0.217,-0.534,-0.288
0.168,-1.885,-0.483,1.403,1.185,-1.644,0.46,0.517,0.334,-0.264,-0.742,-0.609,-0.672,-0.216,-0.533,-0.286
0.169,-1.891,-0.489,1.402,1.19,-1.647,0.457,0.52,0.334,-0.266,-0.744,-0.61,-0.673,-0.216,-0.533,-0.285
0.17,-1.891,-0.496,1.395,1.194,-1.643,0.45,0.517,0.329,-0.268,-0.747,-0.61,-0.674,-0.214,-0.536,-0.285
0.171,-1.897,-0.505,1.391,1.201,-1.644,0.443,0.519,0.328,-0.27,-0.749,-0.612,-0.674,-0.212,-0.537,-0.286
0.172,-1.9,-0.509,1.391,1.204,-1.645,0.441,0.521,0.328,-0.269,-0.749,-0.611,-0.674,-0.212,-0.536,-0.286
0.173,-1.893,-0.504,1.388,1.199,-1.641,0.442,0.515,0.328,-0.268,-0.748,-0.608,-0.674,-0.208,-0.538,-0.284
0.174,-1.889,-0.503,1.385,1.196,-1.637,0.441,0.515,0.328,-0.271,-0.748,-0.607,-0.674,-0.204,-0.535,-0.283
0.175,-1.889,-0.502,1.387,1.196,-1.639,0.443,0.515,0.328,-0.271,-0.749,-0.61,-0.676,-0.201,-0.534,-0.281
0.176,-1.897,-0.505,1.391,1.201,-1.644,0.443,0.515,0.327,-0.273,-0.75,-0.612,-0.677,-0.199,-0.533,-0.28
0.177,-1.907,-0.514,1.392,1.21,-1.649,0.439,0.514,0.324,-0.274,-0.75,-0.612,-0.677,-0.2,-0.531,-0.282
0.178,-1.909,-0.517,1.391,1.213,-1.65,0.437,0.513,0.323,-0.275,-0.75,-0.612,-0.678,-0.201,-0.536,-0.283
0.179,-1.907,-0.516,1.391,1.212,-1.649,0.437,0.512,0.325,-0.274,-0.749,-0.611,-0.678,-0.2,-0.536,-0.284
0.18,-1.911,-0.519,1.393,1.215,-1.651,0.437,0.512,0.327,-0.27,-0.748,-0.609,-0.676,-0.198,-0.537,-0.285
0.181,-1.907,-0.516,1.391,1.211,-1.649,0.438,0.515,0.327,-0.27,-0.747,-0.608,-0.675,-0.198,-0.537,-0.285
0.182,-1.905,-0.516,1.389,1.21,-1.647,0.436,0.514,0.326,-0.271,-0.748,-0.609,-0.677,-0.2,-0.537,-0.283
0.183,-1.901,-0.513,1.387,1.207,-1.645,0.438,0.514,0.326,-0.27,-0.748,-0.607,-0.676,-0.199,-0.537,-0.283
0.184,-1.898,-0.505,1.393,1.202,-1.645,0.444,0.514,0.326,-0.27,-0.747,-0.608,-0.675,-0.199,-0.531,-0.284
0.185,-1.892,-0.5,1.392,1.196,-1.642,0.446,0.515,0.331,-0.267,-0.745,-0.608,-0.676,-0.2,-0.532,-0.283
0.186,-1.883,-0.495,1.387,1.189,-1.635,0.446,0.517,0.332,-0.264,-0.745,-0.608,-0.674,-0.198,-0.533,-0.281
0.187,-1.895,-0.503,1.391,1.198,-1.643,0.445,0.515,0.331,-0.266,-0.746,-0.608,-0.675,-0.194,-0.531,-0.281
0.188,-1.901,-0.51,1.39,1.206,-1.645,0.44,0.512,0.33,-0.268,-0.747,-0.609,-0.675,-0.194,-0.531,-0.28
0.189,-1.892,-0.507,1.385,1.2,-1.638,0.439,0.512,0.331,-0.265,-0.746,-0.608,-0.673,-0.194,-0.532,-0.28
0.19,-1.896,-0.507,1.389,1.202,-1.643,0.441,0.517,0.333,-0.263,-0.743,-0.605,-0.671,-0.196,-0.529,-0.281
0.191,-1.901,-0.505,1.396,1.204,-1.649,0.446,0.517,0.332,-0.264,-0.745,-0.606,-0.672,-0.201,-0.522,-0.281
0.192,-1.889,-0.492,1.397,1.19,-1.643,0.453,0.517,0.333,-0.262,-0.743,-0.604,-0.671,-0.2,-0.52,-0.281
0.193,-1.881,-0.483,1.398,1.182,-1.639,0.458,0.519,0.337,-0.26,-0.741,-0.599,-0.67,-0.199,-0.519,-0.283
0.194,-1.877,-0.478,1.399,1.177,-1.637,0.461,0.52,0.337,-0.262,-0.738,-0.599,-0.668,-0.198,-0.52,-0.283
0.195,-1.873,-0.477,1.395,1.175,-1.634,0.459,0.519,0.337,-0.261,-0.739,-0.601,-0.669,-0.195,-0.523,-0.282
0.196,-1.884,-0.489,1.395,1.187,-1.639,0.453,0.517,0.335,-0.263,-0.742,-0.604,-0.674,-0.195,-0.527,-0.284
0.197,-1.892,-0.494,1.398,1.193,-1.645,0.452,0.516,0.333,-0.264,-0.742,-0.604,-0.676,-0.197,-0.524,-0.281
0.198,-1.899,-0.498,1.401,1.198,-1.649,0.451,0.509,0.33,-0.266,-0.745,-0.608,-0.681,-0.201,-0.519,-0.28
0.199,-1.905,-0.502,1.403,1.204,-1.653,0.45,0.506,0.326,-0.27,-0.749,-0.614,-0.685,-0.205,-0.52,-0.279
0.2,-1.898,-0.495,1.402,1.197,-1.65,0.454,0.511,0.331,-0.265,-0.745,-0.608,-0.681,-0.203,-0.524,-0.28
0.201,-1.893,-0.492,1.401,1.193,-1.647,0.454,0.514,0.336,-0.26,-0.739,-0.604,-0.676,-0.199,-0.525,-0.281
0.202,-1.895,-0.495,1.401,1.196,-1.648,0.453,0.517,0.339,-0.259,-0.739,-0.606,-0.677,-0.201,-0.526,-0.281
0.203,-1.891,-0.491,1.399,1.191,-1.645,0.454,0.518,0.339,-0.258,-0.739,-0.604,-0.678,-0.202,-0.527,-0.281
0.204,-1.883,-0.483,1.399,1.183,-1.641,0.459,0.52,0.34,-0.256,-0.738,-0.602,-0.676,-0.202,-0.525,-0.282
0.205,-1.89,-0.492,1.398,1.191,-1.644,0.453,0.519,0.34,-0.256,-0.737,-0.606,-0.68,-0.206,-0.528,-0.286
0.206,-1.888,-0.491,1.397,1.19,-1.643,0.453,0.517,0.34,-0.256,-0.736,-0.606,-0.68,-0.207,-0.526,-0.288
0.207,-1.876,-0.48,1.396,1.178,-1.636,0.458,0.516,0.344,-0.255,-0.733,-0.603,-0.675,-0.206,-0.525,-0.287
0.208,-1.875,-0.484,1.39,1.179,-1.632,0.453,0.511,0.341,-0.256,-0.735,-0.602,-0.676,-0.208,-0.529,-0.287
0.209,-1.873,-0.484,1.389,1.179,-1.631,0.453,0.513,0.339,-0.257,-0.735,-0.601,-0.676,-0.208,-0.529,-0.286
0.21,-1.881,-0.485,1.397,1.183,-1.639,0.456,0.516,0.341,-0.255,-0.734,-0.6,-0.674,-0.208,-0.529,-0.288
0.211,-1.884,-0.484,1.399,1.185,-1.642,0.458,0.519,0.344,-0.252,-0.733,-0.597,-0.671,-0.206,-0.531,-0.288
0.212,-1.879,-0.481,1.399,1.181,-1.639,0.459,0.52,0.344,-0.251,-0.732,-0.597,-0.67,-0.206,-0.532,-0.287
0.213,-1.875,-0.479,1.395,1.177,-1.635,0.458,0.519,0.343,-0.251,-0.731,-0.597,-0.668,-0.205,-0.53,-0.286
0.214,-1.875,-0.481,1.393,1.179,-1.634,0.456,0.52,0.344,-0.25,-0.731,-0.595,-0.664,-0.204,-0.533,-0.287
0.215,-1.883,-0.488,1.395,1.185,-1.639,0.453,0.52,0.342,-0.253,-0.732,-0.596,-0.667,-0.205,-0.532,-0.289
0.216,-1.886,-0.494,1.392,1.19,-1.639,0.449,0.521,0.343,-0.253,-0.732,-0.597,-0.668,-0.207,-0.535,-0.288
0.217,-1.891,-0.5,1.39,1.195,-1.64,0.445,0.521,0.344,-0.253,-0.731,-0.598,-0.667,-0.208,-0.537,-0.285
0.218,-1.887,-0.501,1.385,1.194,-1.637,0.442,0.52,0.342,-0.253,-0.731,-0.597,-0.667,-0.204,-0.535,-0.283
0.219,-1.887,-0.501,1.387,1.194,-1.637,0.443,0.518,0.341,-0.257,-0.732,-0.598,-0.668,-0.2,-0.531,-0.284
0.22,-1.889,-0.499,1.391,1.194,-1.64,0.446,0.512,0.338,-0.261,-0.737,-0.602,-0.672,-0.198,-0.522,-0.284
0.221,-1.895,-0.502,1.391,1.198,-1.643,0.445,0.513,0.336,-0.259,-0.736,-0.603,-0.671,-0.2,-0.523,-0.284
0.222,-1.901,-0.507,1.393,1.204,-1.647,0.443,0.516,0.339,-0.258,-0.734,-0.6,-0.667,-0.202,-0.53,-0.286
0.223,-1.892,-0.5,1.392,1.196,-1.642,0.446,0.514,0.34,-0.258,-0.734,-0.598,-0.665,-0.2,-0.528,-0.286
0.224,-1.89,-0.495,1.395,1.192,-1.643,0.45,0.515,0.336,-0.257,-0.732,-0.597,-0.663,-0.2,-0.522,-0.287
0.225,-1.889,-0.496,1.393,1.193,-1.641,0.448,0.517,0.336,-0.258,-0.732,-0.596,-0.662,-0.198,-0.524,-0.289
0.226,-1.89,-0.5,1.39,1.195,-1.64,0.445,0.516,0.339,-0.257,-0.732,-0.596,-0.662,-0.196,-0.526,-0.289
0.227,-1.895,-0.506,1.389,1.2,-1.642,0.442,0.516,0.339,-0.256,-0.73,-0.593,-0.66,-0.196,-0.528,-0.289
0.228,-1.891,-0.505,1.387,1.198,-1.639,0.441,0.517,0.339,-0.256,-0.73,-0.592,-0.658,-0.196,-0.531,-0.288
0.229,-1.891,-0.504,1.386,1.198,-1.638,0.441,0.519,0.343,-0.254,-0.729,-0.592,-0.656,-0.195,-0.529,-0.286
0.23,-1.889,-0.504,1.384,1.196,-1.637,0.44,0.52,0.345,-0.252,-0.727,-0.589,-0.656,-0.194,-0.529,-0.285
0.231,-1.887,-0.5,1.387,1.194,-1.637,0.443,0.521,0.344,-0.253,-0.728,-0.592,-0.657,-0.194,-0.527,-0.282
0.232,-1.881,-0.495,1.387,1.188,-1.634,0.446,0.519,0.341,-0.256,-0.73,-0.595,-0.659,-0.192,-0.52,-0.282
0.233,-1.875,-0.485,1.389,1.181,-1.632,0.452,0.518,0.343,-0.253,-0.728,-0.594,-0.658,-0.193,-0.514,-0.284
0.234,-1.871,-0.478,1.393,1.175,-1.633,0.458,0.522,0.347,-0.251,-0.725,-0.593,-0.657,-0.191,-0.515,-0.281
0.235,-1.869,-0.477,1.393,1.173,-1.631,0.458,0.524,0.347,-0.251,-0.724,-0.592,-0.657,-0.191,-0.52,-0.281
0.236,-1.872,-0.479,1.393,1.176,-1.633,0.457,0.523,0.348,-0.25,-0.726,-0.596,-0.658,-0.194,-0.519,-0.281
0.237,-1.876,-0.484,1.392,1.181,-1.634,0.454,0.522,0.348,-0.252,-0.728,-0.598,-0.66,-0.195,-0.522,-0.281
0.238,-1.877,-0.485,1.392,1.181,-1.635,0.454,0.522,0.346,-0.253,-0.728,-0.597,-0.66,-0.197,-0.524,-0.283
0.239,-1.874,-0.48,1.393,1.177,-1.633,0.457,0.524,0.347,-0.253,-0.728,-0.596,-0.66,-0.198,-0.522,-0.281
0.24,-1.877,-0.483,1.394,1.181,-1.635,0.456,0.524,0.344,-0.256,-0.731,-0.6,-0.661,-0.201,-0.521,-0.282
0.241,-1.879,-0.484,1.395,1.181,-1.637,0.456,0.521,0.341,-0.26,-0.733,-0.602,-0.662,-0.2,-0.52,-0.282
0.242,-1.885,-0.481,1.403,1.183,-1.644,0.461,0.524,0.343,-0.258,-0.732,-0.599,-0.662,-0.2,-0.525,-0.283
0.243,-1.881,-0.481,1.401,1.181,-1.641,0.46,0.527,0.345,-0.254,-0.728,-0.597,-0.66,-0.198,-0.529,-0.285
0.244,-1.875,-0.478,1.397,1.177,-1.636,0.459,0.527,0.348,-0.253,-0.728,-0.598,-0.663,-0.198,-0.527,-0.283
0.245,-1.881,-0.483,1.398,1.182,-1.639,0.458,0.523,0.343,-0.257,-0.733,-0.603,-0.667,-0.2,-0.528,-0.282
0.246,-1.887,-0.496,1.391,1.192,-1.639,0.448,0.517,0.339,-0.262,-0.736,-0.606,-0.671,-0.199,-0.527,-0.282
0.247,-1.901,-0.506,1.395,1.204,-1.647,0.444,0.513,0.339,-0.264,-0.74,-0.61,-0.675,-0.2,-0.526,-0.285
0.248,-1.893,-0.499,1.394,1.196,-1.643,0.448,0.517,0.337,-0.266,-0.741,-0.61,-0.675,-0.199,-0.528,-0.286
0.249,-1.891,-0.49,1.4,1.19,-1.645,0.455,0.523,0.341,-0.259,-0.736,-0.605,-0.673,-0.201,-0.528,-0.287
0.25,-1.898,-0.492,1.405,1.195,-1.651,0.457,0.525,0.343,-0.258,-0.734,-0.605,-0.673,-0.203,-0.527,-0.288
0.251,-1.897,-0.497,1.4,1.197,-1.649,0.452,0.526,0.342,-0.262,-0.736,-0.607,-0.674,-0.203,-0.527,-0.285
0.252,-1.889,-0.49,1.398,1.189,-1.643,0.454,0.526,0.344,-0.26,-0.734,-0.605,-0.67,-0.201,-0.524,-0.284
0.253,-1.879,-0.482,1.396,1.181,-1.637,0.457,0.526,0.344,-0.26,-0.734,-0.605,-0.669,-0.203,-0.518,-0.283
0.254,-1.891,-0.488,1.402,1.19,-1.647,0.457,0.527,0.344,-0.259,-0.734,-0.605,-0.671,-0.206,-0.519,-0.284
0.255,-1.893,-0.491,1.401,1.192,-1.647,0.455,0.527,0.343,-0.261,-0.735,-0.605,-0.67,-0.205,-0.521,-0.284
0.256,-1.885,-0.487,1.398,1.187,-1.641,0.456,0.53,0.343,-0.26,-0.735,-0.604,-0.668,-0.201,-0.521,-0.284
0.257,-1.888,-0.489,1.399,1.188,-1.644,0.456,0.532,0.343,-0.262,-0.735,-0.603,-0.667,-0.202,-0.524,-0.285
0.258,-1.887,-0.487,1.399,1.188,-1.643,0.456,0.53,0.343,-0.264,-0.735,-0.602,-0.668,-0.206,-0.521,-0.286
0.259,-1.884,-0.478,1.405,1.181,-1.645,0.464,0.533,0.344,-0.26,-0.732,-0.599,-0.663,-0.204,-0.523,-0.285
0.26,-1.883,-0.474,1.409,1.179,-1.646,0.467,0.532,0.344,-0.259,-0.733,-0.599,-0.662,-0.203,-0.525,-0.284
0.261,-1.879,-0.479,1.4,1.179,-1.639,0.461,0.526,0.342,-0.262,-0.734,-0.6,-0.663,-0.202,-0.527,-0.283
0.262,-1.877,-0.483,1.394,1.18,-1.635,0.456,0.523,0.34,-0.264,-0.737,-0.602,-0.664,-0.2,-0.531,-0.281
0.263,-1.881,-0.485,1.396,1.183,-1.639,0.456,0.525,0.34,-0.265,-0.737,-0.602,-0.665,-0.202,-0.529,-0.279
0.264,-1.883,-0.488,1.395,1.185,-1.639,0.454,0.526,0.34,-0.266,-0.738,-0.602,-0.663,-0.201,-0.532,-0.278
0.265,-1.875,-0.483,1.391,1.179,-1.633,0.454,0.522,0.338,-0.267,-0.739,-0.603,-0.664,-0.198,-0.529,-0.277
0.266,-1.876,-0.483,1.393,1.18,-1.634,0.455,0.521,0.34,-0.265,-0.738,-0.602,-0.666,-0.199,-0.525,-0.277
0.267,-1.885,-0.489,1.395,1.188,-1.64,0.453,0.522,0.342,-0.265,-0.739,-0.603,-0.668,-0.201,-0.526,-0.278
0.268,-1.89,-0.489,1.401,1.19,-1.645,0.456,0.524,0.34,-0.268,-0.741,-0.605,-0.668,-0.205,-0.526,-0.277
0.269,-1.889,-0.486,1.402,1.188,-1.645,0.458,0.524,0.339,-0.268,-0.742,-0.605,-0.669,-0.209,-0.524,-0.28
0.27,-1.885,-0.484,1.401,1.185,-1.643,0.459,0.521,0.339,-0.27,-0.743,-0.605,-0.67,-0.208,-0.523,-0.279
0.271,-1.883,-0.48,1.403,1.181,-1.643,0.462,0.524,0.34,-0.27,-0.743,-0.605,-0.669,-0.206,-0.526,-0.277
0.272,-1.879,-0.479,1.399,1.179,-1.639,0.46,0.525,0.339,-0.269,-0.743,-0.604,-0.669,-0.206,-0.526,-0.277
0.273,-1.881,-0.482,1.399,1.182,-1.641,0.459,0.522,0.336,-0.27,-0.746,-0.606,-0.671,-0.206,-0.523,-0.275
0.274,-1.886,-0.481,1.404,1.183,-1.645,0.462,0.519,0.336,-0.269,-0.744,-0.604,-0.669,-0.206,-0.516,-0.277
0.275,-1.889,-0.486,1.403,1.188,-1.646,0.459,0.519,0.335,-0.27,-0.746,-0.607,-0.673,-0.208,-0.519,-0.28
0.276,-1.893,-0.493,1.4,1.194,-1.647,0.454,0.521,0.333,-0.273,-0.749,-0.612,-0.677,-0.212,-0.523,-0.281
0.277,-1.885,-0.492,1.394,1.189,-1.639,0.451,0.523,0.335,-0.27,-0.746,-0.609,-0.672,-0.21,-0.523,-0.281
0.278,-1.873,-0.484,1.389,1.179,-1.631,0.453,0.523,0.336,-0.269,-0.744,-0.608,-0.669,-0.208,-0.524,-0.28
0.279,-1.883,-0.478,1.405,1.181,-1.644,0.464,0.522,0.338,-0.268,-0.744,-0.609,-0.671,-0.212,-0.519,-0.279
0.28,-1.889,-0.475,1.414,1.182,-1.651,0.469,0.523,0.335,-0.271,-0.748,-0.614,-0.674,-0.212,-0.516,-0.276
0.281,-1.893,-0.485,1.407,1.189,-1.651,0.462,0.516,0.324,-0.28,-0.756,-0.621,-0.679,-0.211,-0.514,-0.275
0.282,-1.895,-0.489,1.406,1.192,-1.651,0.459,0.515,0.326,-0.28,-0.755,-0.62,-0.679,-0.209,-0.519,-0.273
0.283,-1.881,-0.476,1.405,1.179,-1.643,0.465,0.522,0.334,-0.274,-0.749,-0.616,-0.675,-0.208,-0.52,-0.272
0.284,-1.885,-0.479,1.407,1.182,-1.646,0.464,0.518,0.33,-0.278,-0.752,-0.618,-0.678,-0.213,-0.521,-0.272
0.285,-1.893,-0.491,1.401,1.192,-1.647,0.456,0.518,0.329,-0.279,-0.754,-0.618,-0.68,-0.212,-0.528,-0.272
0.286,-1.889,-0.493,1.396,1.192,-1.643,0.451,0.516,0.328,-0.279,-0.753,-0.619,-0.678,-0.208,-0.523,-0.27
0.287,-1.887,-0.492,1.395,1.19,-1.641,0.452,0.515,0.327,-0.279,-0.751,-0.62,-0.678,-0.206,-0.524,-0.27
0.288,-1.891,-0.492,1.399,1.192,-1.645,0.453,0.517,0.326,-0.281,-0.752,-0.62,-0.68,-0.206,-0.529,-0.273
0.289,-1.895,-0.492,1.403,1.194,-1.649,0.455,0.518,0.326,-0.281,-0.753,-0.62,-0.682,-0.208,-0.527,-0.273
0.29,-1.885,-0.484,1.399,1.185,-1.642,0.458,0.519,0.328,-0.277,-0.75,-0.618,-0.682,-0.206,-0.529,-0.27
0.291,-1.885,-0.487,1.399,1.186,-1.642,0.456,0.519,0.327,-0.279,-0.75,-0.619,-0.681,-0.208,-0.531,-0.272
0.292,-1.899,-0.499,1.399,1.2,-1.649,0.45,0.52,0.327,-0.28,-0.752,-0.622,-0.684,-0.216,-0.531,-0.276
0.293,-1.899,-0.492,1.406,1.196,-1.653,0.457,0.519,0.326,-0.281,-0.756,-0.624,-0.687,-0.217,-0.527,-0.276
0.294,-1.883,-0.475,1.407,1.179,-1.645,0.467,0.521,0.33,-0.278,-0.753,-0.62,-0.683,-0.216,-0.526,-0.275
0.295,-1.869,-0.465,1.404,1.167,-1.637,0.469,0.525,0.331,-0.277,-0.751,-0.618,-0.678,-0.215,-0.527,-0.273
0.296,-1.873,-0.465,1.408,1.169,-1.641,0.472,0.524,0.332,-0.275,-0.75,-0.617,-0.677,-0.213,-0.527,-0.273
0.297,-1.879,-0.468,1.411,1.173,-1.645,0.471,0.528,0.333,-0.275,-0.75,-0.615,-0.678,-0.213,-0.525,-0.276
0.298,-1.876,-0.464,1.412,1.17,-1.644,0.474,0.531,0.33,-0.277,-0.75,-0.616,-0.675,-0.21,-0.522,-0.274
0.299,-1.876,-0.461,1.415,1.169,-1.646,0.477,0.529,0.334,-0.272,-0.748,-0.613,-0.672,-0.212,-0.522,-0.273
0.3,-1.875,-0.462,1.413,1.168,-1.644,0.476,0.534,0.336,-0.273,-0.749,-0.612,-0.671,-0.213,-0.521,-0.272
0.301,-1.869,-0.46,1.41,1.165,-1.64,0.475,0.535,0.336,-0.273,-0.747,-0.609,-0.669,-0.212,-0.519,-0.273
0.302,-1.876,-0.468,1.409,1.172,-1.643,0.47,0.531,0.333,-0.278,-0.749,-0.609,-0.671,-0.213,-0.521,-0.275
0.303,-1.879,-0.477,1.402,1.179,-1.641,0.463,0.528,0.33,-0.281,-0.751,-0.617,-0.673,-0.214,-0.524,-0.276
0.304,-1.874,-0.473,1.401,1.174,-1.637,0.464,0.531,0.333,-0.277,-0.75,-0.62,-0.669,-0.214,-0.526,-0.275
0.305,-1.879,-0.477,1.402,1.179,-1.641,0.462,0.532,0.336,-0.278,-0.749,-0.616,-0.668,-0.212,-0.528,-0.276
0.306,-1.885,-0.486,1.399,1.186,-1.643,0.457,0.528,0.332,-0.281,-0.75,-0.618,-0.67,-0.214,-0.529,-0.279
0.307,-1.888,-0.491,1.396,1.19,-1.642,0.453,0.527,0.329,-0.282,-0.756,-0.621,-0.672,-0.217,-0.528,-0.278
0.308,-1.893,-0.494,1.399,1.194,-1.646,0.453,0.526,0.327,-0.282,-0.756,-0.62,-0.671,-0.217,-0.526,-0.277
0.309,-1.893,-0.493,1.399,1.193,-1.646,0.453,0.528,0.326,-0.283,-0.757,-0.618,-0.67,-0.217,-0.522,-0.276
0.31,-1.894,-0.494,1.399,1.194,-1.647,0.453,0.531,0.328,-0.282,-0.757,-0.617,-0.671,-0.217,-0.525,-0.277
0.311,-1.899,-0.503,1.396,1.201,-1.647,0.447,0.528,0.324,-0.285,-0.76,-0.62,-0.672,-0.219,-0.532,-0.275
0.312,-1.893,-0.503,1.389,1.198,-1.641,0.443,0.525,0.324,-0.286,-0.761,-0.619,-0.672,-0.22,-0.53,-0.275
0.313,-1.891,-0.494,1.397,1.193,-1.645,0.451,0.528,0.33,-0.279,-0.754,-0.613,-0.667,-0.223,-0.534,-0.281
0.314,-1.899,-0.498,1.399,1.198,-1.649,0.451,0.527,0.331,-0.281,-0.755,-0.615,-0.668,-0.224,-0.538,-0.278
0.315,-1.896,-0.501,1.395,1.198,-1.645,0.447,0.528,0.329,-0.283,-0.76,-0.617,-0.671,-0.226,-0.536,-0.276
0.316,-1.89,-0.499,1.391,1.194,-1.641,0.446,0.524,0.326,-0.286,-0.762,-0.62,-0.672,-0.221,-0.537,-0.274
0.317,-1.898,-0.511,1.387,1.204,-1.643,0.438,0.518,0.322,-0.291,-0.765,-0.625,-0.677,-0.22,-0.537,-0.272
0.318,-1.904,-0.511,1.393,1.208,-1.648,0.441,0.522,0.322,-0.291,-0.767,-0.625,-0.678,-0.223,-0.538,-0.273
0.319,-1.899,-0.502,1.396,1.201,-1.647,0.447,0.527,0.324,-0.288,-0.764,-0.622,-0.675,-0.221,-0.536,-0.272
0.32,-1.899,-0.502,1.396,1.2,-1.647,0.447,0.528,0.327,-0.286,-0.763,-0.621,-0.676,-0.22,-0.535,-0.27
0.321,-1.895,-0.5,1.395,1.198,-1.645,0.447,0.526,0.325,-0.287,-0.762,-0.621,-0.675,-0.215,-0.536,-0.266
0.322,-1.894,-0.503,1.391,1.198,-1.643,0.444,0.524,0.324,-0.29,-0.764,-0.622,-0.677,-0.216,-0.531,-0.266
0.323,-1.897,-0.502,1.395,1.2,-1.647,0.447,0.525,0.322,-0.292,-0.766,-0.622,-0.678,-0.216,-0.531,-0.265
0.324,-1.889,-0.492,1.397,1.191,-1.643,0.453,0.53,0.324,-0.289,-0.762,-0.618,-0.675,-0.212,-0.535,-0.263
0.325,-1.887,-0.488,1.399,1.187,-1.643,0.456,0.531,0.329,-0.283,-0.759,-0.616,-0.676,-0.214,-0.533,-0.264
0.326,-1.889,-0.485,1.403,1.187,-1.646,0.459,0.529,0.329,-0.284,-0.759,-0.617,-0.677,-0.216,-0.527,-0.266
0.327,-1.881,-0.477,1.405,1.179,-1.643,0.464,0.527,0.327,-0.286,-0.761,-0.617,-0.677,-0.218,-0.521,-0.265
0.328,-1.887,-0.484,1.403,1.185,-1.645,0.46,0.522,0.323,-0.288,-0.763,-0.62,-0.681,-0.217,-0.519,-0.265
0.329,-1.89,-0.489,1.401,1.19,-1.645,0.456,0.522,0.324,-0.289,-0.761,-0.62,-0.681,-0.212,-0.525,-0.266
0.33,-1.891,-0.488,1.402,1.19,-1.647,0.457,0.524,0.324,-0.289,-0.762,-0.621,-0.68,-0.209,-0.525,-0.264
0.331,-1.891,-0.49,1.401,1.191,-1.647,0.456,0.525,0.323,-0.291,-0.762,-0.62,-0.678,-0.209,-0.524,-0.263
0.332,-1.884,-0.481,1.402,1.183,-1.643,0.46,0.531,0.326,-0.289,-0.76,-0.619,-0.676,-0.212,-0.525,-0.264
0.333,-1.891,-0.487,1.403,1.189,-1.647,0.458,0.532,0.324,-0.29,-0.762,-0.622,-0.679,-0.214,-0.523,-0.265
0.334,-1.892,-0.491,1.401,1.192,-1.647,0.455,0.532,0.323,-0.291,-0.763,-0.623,-0.68,-0.217,-0.524,-0.266
0.335,-1.887,-0.485,1.401,1.186,-1.645,0.459,0.534,0.327,-0.288,-0.76,-0.621,-0.678,-0.218,-0.525,-0.266
0.336,-1.88,-0.48,1.4,1.18,-1.64,0.46,0.535,0.33,-0.285,-0.757,-0.619,-0.675,-0.218,-0.525,-0.267
0.337,-1.878,-0.478,1.399,1.179,-1.639,0.461,0.536,0.329,-0.288,-0.759,-0.62,-0.676,-0.222,-0.529,-0.266
0.338,-1.893,-0.489,1.403,1.19,-1.648,0.457,0.535,0.325,-0.292,-0.761,-0.623,-0.679,-0.224,-0.53,-0.266
0.339,-1.897,-0.495,1.401,1.196,-1.649,0.453,0.53,0.321,-0.294,-0.765,-0.625,-0.681,-0.227,-0.527,-0.265
0.34,-1.894,-0.499,1.395,1.196,-1.644,0.448,0.531,0.321,-0.295,-0.766,-0.627,-0.681,-0.228,-0.532,-0.266
0.341,-1.895,-0.502,1.394,1.199,-1.645,0.446,0.531,0.323,-0.294,-0.763,-0.625,-0.678,-0.225,-0.538,-0.266
0.342,-1.901,-0.509,1.393,1.205,-1.647,0.442,0.524,0.318,-0.297,-0.765,-0.626,-0.68,-0.224,-0.538,-0.266
0.343,-1.904,-0.513,1.391,1.208,-1.647,0.439,0.521,0.312,-0.301,-0.771,-0.629,-0.684,-0.224,-0.536,-0.264
0.344,-1.903,-0.509,1.393,1.206,-1.648,0.442,0.523,0.311,-0.303,-0.772,-0.629,-0.681,-0.222,-0.536,-0.26
0.345,-1.899,-0.504,1.394,1.202,-1.647,0.445,0.525,0.317,-0.3,-0.768,-0.627,-0.676,-0.218,-0.532,-0.261
0.346,-1.897,-0.503,1.394,1.2,-1.645,0.446,0.527,0.318,-0.299,-0.768,-0.625,-0.677,-0.218,-0.535,-0.26
0.347,-1.894,-0.502,1.392,1.198,-1.643,0.445,0.53,0.321,-0.297,-0.767,-0.625,-0.679,-0.222,-0.538,-0.26
0.348,-1.885,-0.498,1.387,1.192,-1.637,0.444,0.531,0.324,-0.294,-0.764,-0.622,-0.674,-0.221,-0.536,-0.262
0.349,-1.893,-0.503,1.39,1.198,-1.641,0.444,0.534,0.322,-0.295,-0.763,-0.619,-0.673,-0.22,-0.538,-0.262
0.35,-1.893,-0.502,1.391,1.198,-1.643,0.445,0.534,0.32,-0.297,-0.766,-0.624,-0.678,-0.226,-0.535,-0.261
0.351,-1.893,-0.5,1.393,1.196,-1.643,0.447,0.536,0.321,-0.296,-0.766,-0.626,-0.678,-0.225,-0.53,-0.265
0.352,-1.891,-0.499,1.392,1.195,-1.641,0.447,0.54,0.324,-0.292,-0.765,-0.627,-0.679,-0.221,-0.53,-0.267
0.353,-1.897,-0.508,1.389,1.202,-1.643,0.441,0.538,0.321,-0.297,-0.769,-0.63,-0.686,-0.223,-0.532,-0.266
0.354,-1.91,-0.515,1.394,1.213,-1.652,0.44,0.534,0.318,-0.299,-0.769,-0.63,-0.689,-0.223,-0.539,-0.266
0.355,-1.907,-0.514,1.393,1.211,-1.65,0.439,0.534,0.321,-0.296,-0.767,-0.627,-0.689,-0.224,-0.546,-0.265
0.356,-1.903,-0.518,1.385,1.211,-1.644,0.433,0.531,0.321,-0.296,-0.768,-0.628,-0.69,-0.227,-0.549,-0.266
0.357,-1.904,-0.52,1.384,1.212,-1.644,0.432,0.529,0.32,-0.297,-0.769,-0.629,-0.688,-0.227,-0.549,-0.266
0.358,-1.908,-0.522,1.386,1.215,-1.647,0.432,0.536,0.322,-0.295,-0.766,-0.626,-0.685,-0.224,-0.544,-0.266
0.359,-1.895,-0.51,1.385,1.202,-1.64,0.438,0.538,0.325,-0.292,-0.762,-0.624,-0.682,-0.222,-0.538,-0.264
0.36,-1.894,-0.501,1.393,1.198,-1.643,0.446,0.535,0.326,-0.291,-0.762,-0.625,-0.682,-0.223,-0.535,-0.264
0.361,-1.913,-0.512,1.401,1.212,-1.657,0.444,0.525,0.32,-0.298,-0.77,-0.631,-0.688,-0.225,-0.531,-0.262
0.362,-1.913,-0.519,1.393,1.216,-1.653,0.437,0.518,0.316,-0.301,-0.773,-0.634,-0.689,-0.225,-0.532,-0.261
0.363,-1.909,-0.519,1.39,1.214,-1.65,0.435,0.522,0.317,-0.301,-0.774,-0.634,-0.688,-0.221,-0.536,-0.26
0.364,-1.915,-0.521,1.395,1.218,-1.655,0.437,0.519,0.312,-0.305,-0.778,-0.64,-0.691,-0.222,-0.533,-0.258
0.365,-1.905,-0.507,1.397,1.206,-1.651,0.445,0.521,0.315,-0.303,-0.774,-0.637,-0.686,-0.217,-0.532,-0.256
0.366,-1.895,-0.497,1.399,1.196,-1.647,0.451,0.525,0.317,-0.3,-0.773,-0.638,-0.682,-0.214,-0.531,-0.254
0.367,-1.9,-0.501,1.399,1.2,-1.649,0.449,0.527,0.319,-0.3,-0.773,-0.641,-0.687,-0.221,-0.533,-0.253
0.368,-1.897,-0.503,1.394,1.2,-1.645,0.445,0.533,0.322,-0.299,-0.772,-0.64,-0.687,-0.223,-0.54,-0.254
0.369,-1.895,-0.505,1.39,1.2,-1.643,0.443,0.531,0.321,-0.3,-0.775,-0.642,-0.688,-0.226,-0.54,-0.258
0.37,-1.898,-0.501,1.397,1.2,-1.647,0.448,0.527,0.319,-0.301,-0.774,-0.64,-0.689,-0.228,-0.537,-0.257
0.371,-1.905,-0.505,1.4,1.204,-1.653,0.448,0.525,0.316,-0.306,-0.775,-0.644,-0.691,-0.227,-0.534,-0.256
0.372,-1.911,-0.505,1.406,1.208,-1.659,0.451,0.527,0.314,-0.307,-0.778,-0.644,-0.693,-0.23,-0.53,-0.259
0.373,-1.907,-0.497,1.41,1.202,-1.659,0.457,0.527,0.315,-0.304,-0.777,-0.641,-0.691,-0.227,-0.528,-0.26
0.374,-1.895,-0.487,1.408,1.191,-1.651,0.461,0.527,0.317,-0.301,-0.775,-0.64,-0.688,-0.224,-0.524,-0.26
0.375,-1.89,-0.482,1.408,1.186,-1.649,0.463,0.527,0.319,-0.301,-0.776,-0.64,-0.686,-0.221,-0.522,-0.257
0.376,-1.897,-0.487,1.409,1.192,-1.653,0.462,0.528,0.317,-0.303,-0.777,-0.642,-0.688,-0.222,-0.522,-0.257
0.377,-1.895,-0.488,1.407,1.192,-1.651,0.459,0.527,0.316,-0.304,-0.778,-0.641,-0.688,-0.22,-0.527,-0.259
0.378,-1.891,-0.489,1.402,1.19,-1.647,0.457,0.523,0.312,-0.307,-0.779,-0.642,-0.686,-0.216,-0.524,-0.257
0.379,-1.891,-0.483,1.408,1.187,-1.649,0.463,0.525,0.314,-0.305,-0.776,-0.639,-0.683,-0.22,-0.519,-0.258
0.38,-1.886,-0.479,1.407,1.183,-1.647,0.464,0.529,0.317,-0.302,-0.774,-0.637,-0.68,-0.221,-0.525,-0.26
0.381,-1.886,-0.486,1.4,1.186,-1.643,0.457,0.528,0.316,-0.304,-0.775,-0.637,-0.681,-0.222,-0.53,-0.262
0.382,-1.889,-0.488,1.4,1.188,-1.645,0.456,0.523,0.312,-0.306,-0.777,-0.636,-0.682,-0.223,-0.524,-0.262
0.383,-1.889,-0.488,1.401,1.189,-1.645,0.457,0.525,0.311,-0.307,-0.777,-0.634,-0.68,-0.22,-0.518,-0.26
0.384,-1.884,-0.481,1.403,1.183,-1.643,0.461,0.527,0.311,-0.309,-0.775,-0.63,-0.677,-0.218,-0.52,-0.26
0.385,-1.881,-0.476,1.404,1.178,-1.643,0.464,0.53,0.315,-0.306,-0.773,-0.625,-0.672,-0.218,-0.523,-0.259
0.386,-1.883,-0.481,1.403,1.182,-1.643,0.461,0.528,0.316,-0.305,-0.773,-0.625,-0.671,-0.213,-0.525,-0.257
0.387,-1.885,-0.483,1.401,1.185,-1.643,0.459,0.525,0.314,-0.308,-0.775,-0.626,-0.673,-0.212,-0.527,-0.255
0.388,-1.887,-0.49,1.398,1.189,-1.643,0.454,0.526,0.315,-0.306,-0.773,-0.627,-0.675,-0.213,-0.532,-0.257
0.389,-1.888,-0.496,1.391,1.192,-1.639,0.448,0.526,0.315,-0.307,-0.774,-0.628,-0.675,-0.211,-0.533,-0.256
0.39,-1.893,-0.498,1.395,1.196,-1.643,0.448,0.528,0.317,-0.304,-0.773,-0.627,-0.674,-0.211,-0.534,-0.26
0.391,-1.899,-0.496,1.403,1.198,-1.651,0.454,0.529,0.315,-0.307,-0.774,-0.629,-0.676,-0.213,-0.53,-0.259
0.392,-1.909,-0.502,1.407,1.206,-1.659,0.453,0.526,0.311,-0.308,-0.777,-0.635,-0.681,-0.215,-0.527,-0.256
0.393,-1.907,-0.506,1.402,1.206,-1.655,0.448,0.525,0.312,-0.306,-0.778,-0.638,-0.682,-0.215,-0.53,-0.259
0.394,-1.909,-0.511,1.397,1.21,-1.653,0.444,0.526,0.31,-0.308,-0.779,-0.636,-0.684,-0.214,-0.533,-0.262
0.395,-1.913,-0.517,1.395,1.214,-1.654,0.44,0.53,0.312,-0.307,-0.777,-0.638,-0.684,-0.215,-0.537,-0.266
0.396,-1.9,-0.506,1.395,1.203,-1.647,0.445,0.536,0.318,-0.304,-0.773,-0.636,-0.68,-0.218,-0.536,-0.266
0.397,-1.899,-0.498,1.4,1.198,-1.649,0.451,0.537,0.323,-0.3,-0.769,-0.631,-0.677,-0.222,-0.532,-0.264
0.398,-1.894,-0.491,1.403,1.193,-1.649,0.456,0.534,0.321,-0.302,-0.769,-0.633,-0.678,-0.223,-0.53,-0.264
0.399,-1.889,-0.483,1.405,1.186,-1.647,0.461,0.532,0.318,-0.303,-0.771,-0.634,-0.68,-0.224,-0.529,-0.263
0.4,-1.887,-0.477,1.411,1.183,-1.649,0.467,0.532,0.32,-0.3,-0.768,-0.63,-0.677,-0.225,-0.529,-0.263
0.401,-1.887,-0.475,1.411,1.181,-1.649,0.468,0.533,0.32,-0.301,-0.765,-0.628,-0.676,-0.226,-0.531,-0.263
0.402,-1.883,-0.474,1.409,1.179,-1.646,0.467,0.531,0.321,-0.299,-0.763,-0.625,-0.675,-0.227,-0.535,-0.262
0.403,-1.877,-0.471,1.406,1.174,-1.641,0.468,0.532,0.324,-0.297,-0.76,-0.623,-0.671,-0.226,-0.534,-0.258
0.404,-1.872,-0.469,1.403,1.17,-1.638,0.468,0.531,0.323,-0.296,-0.759,-0.62,-0.668,-0.222,-0.53,-0.255
0.405,-1.867,-0.467,1.401,1.167,-1.633,0.467,0.525,0.32,-0.298,-0.761,-0.619,-0.669,-0.22,-0.527,-0.255
0.406,-1.879,-0.479,1.4,1.179,-1.639,0.461,0.532,0.32,-0.296,-0.762,-0.619,-0.669,-0.221,-0.529,-0.26
0.407,-1.885,-0.489,1.396,1.188,-1.641,0.453,0.532,0.321,-0.296,-0.761,-0.617,-0.669,-0.22,-0.537,-0.263
0.408,-1.887,-0.494,1.393,1.19,-1.64,0.45,0.529,0.32,-0.297,-0.763,-0.619,-0.671,-0.222,-0.539,-0.262
0.409,-1.893,-0.5,1.393,1.196,-1.643,0.447,0.53,0.318,-0.299,-0.765,-0.622,-0.673,-0.222,-0.541,-0.26
0.41,-1.894,-0.503,1.391,1.198,-1.643,0.444,0.527,0.314,-0.303,-0.768,-0.625,-0.678,-0.221,-0.539,-0.258
0.411,-1.889,-0.501,1.389,1.196,-1.639,0.444,0.527,0.313,-0.303,-0.769,-0.626,-0.68,-0.216,-0.535,-0.257
0.412,-1.89,-0.498,1.392,1.194,-1.641,0.447,0.526,0.314,-0.304,-0.769,-0.627,-0.681,-0.216,-0.537,-0.256
0.413,-1.896,-0.497,1.399,1.196,-1.647,0.452,0.529,0.316,-0.302,-0.769,-0.628,-0.684,-0.224,-0.529,-0.257
0.414,-1.889,-0.491,1.398,1.19,-1.643,0.454,0.531,0.318,-0.303,-0.766,-0.625,-0.684,-0.226,-0.527,-0.257
0.415,-1.893,-0.491,1.403,1.192,-1.648,0.456,0.531,0.319,-0.302,-0.765,-0.625,-0.688,-0.229,-0.532,-0.258
0.416,-1.897,-0.496,1.401,1.196,-1.649,0.453,0.528,0.314,-0.305,-0.772,-0.633,-0.696,-0.233,-0.532,-0.258
0.417,-1.889,-0.49,1.399,1.19,-1.644,0.454,0.528,0.313,-0.306,-0.772,-0.634,-0.697,-0.232,-0.532,-0.257
0.418,-1.891,-0.484,1.407,1.188,-1.649,0.462,0.532,0.32,-0.3,-0.765,-0.628,-0.694,-0.231,-0.532,-0.259
0.419,-1.896,-0.486,1.409,1.191,-1.653,0.462,0.53,0.318,-0.303,-0.767,-0.633,-0.697,-0.234,-0.53,-0.259
0.42,-1.893,-0.488,1.405,1.191,-1.649,0.459,0.528,0.316,-0.304,-0.77,-0.635,-0.698,-0.238,-0.525,-0.258
0.421,-1.887,-0.481,1.406,1.185,-1.647,0.463,0.53,0.319,-0.303,-0.767,-0.631,-0.696,-0.24,-0.523,-0.259
0.422,-1.887,-0.48,1.407,1.183,-1.647,0.463,0.53,0.318,-0.304,-0.768,-0.63,-0.694,-0.239,-0.521,-0.261
0.423,-1.889,-0.482,1.407,1.185,-1.648,0.462,0.531,0.318,-0.303,-0.769,-0.632,-0.693,-0.237,-0.519,-0.263
0.424,-1.888,-0.481,1.407,1.185,-1.648,0.463,0.532,0.321,-0.301,-0.767,-0.633,-0.691,-0.237,-0.521,-0.264
0.425,-1.889,-0.482,1.406,1.185,-1.647,0.462,0.531,0.323,-0.3,-0.767,-0.633,-0.69,-0.235,-0.524,-0.261
0.426,-1.897,-0.49,1.407,1.194,-1.653,0.459,0.532,0.321,-0.301,-0.77,-0.634,-0.691,-0.235,-0.525,-0.263
0.427,-1.899,-0.494,1.405,1.197,-1.652,0.455,0.535,0.318,-0.302,-0.771,-0.636,-0.691,-0.235,-0.526,-0.264
0.428,-1.89,-0.489,1.401,1.19,-1.645,0.456,0.532,0.319,-0.301,-0.77,-0.637,-0.689,-0.233,-0.528,-0.26
0.429,-1.894,-0.49,1.403,1.192,-1.649,0.457,0.528,0.321,-0.299,-0.769,-0.633,-0.686,-0.232,-0.531,-0.259
0.43,-1.891,-0.491,1.399,1.191,-1.645,0.454,0.53,0.322,-0.299,-0.768,-0.633,-0.681,-0.23,-0.535,-0.257
0.431,-1.874,-0.482,1.392,1.178,-1.633,0.455,0.527,0.322,-0.299,-0.765,-0.629,-0.676,-0.226,-0.534,-0.256
0.432,-1.881,-0.485,1.395,1.183,-1.638,0.455,0.526,0.321,-0.297,-0.765,-0.627,-0.675,-0.224,-0.533,-0.256
0.433,-1.891,-0.493,1.398,1.192,-1.645,0.452,0.527,0.319,-0.299,-0.767,-0.629,-0.675,-0.224,-0.533,-0.254
0.434,-1.885,-0.489,1.396,1.188,-1.641,0.453,0.522,0.318,-0.3,-0.766,-0.628,-0.673,-0.221,-0.53,-0.253
0.435,-1.887,-0.492,1.395,1.19,-1.641,0.452,0.519,0.315,-0.301,-0.767,-0.63,-0.673,-0.216,-0.529,-0.252
0.436,-1.893,-0.493,1.399,1.193,-1.647,0.454,0.522,0.312,-0.302,-0.769,-0.629,-0.675,-0.217,-0.532,-0.251
0.437,-1.892,-0.491,1.401,1.192,-1.647,0.455,0.525,0.316,-0.301,-0.767,-0.629,-0.675,-0.215,-0.535,-0.249
0.438,-1.889,-0.49,1.399,1.19,-1.643,0.454,0.527,0.32,-0.3,-0.769,-0.633,-0.676,-0.213,-0.533,-0.248
0.439,-1.892,-0.493,1.399,1.192,-1.645,0.453,0.528,0.316,-0.304,-0.772,-0.636,-0.679,-0.215,-0.531,-0.248
0.44,-1.891,-0.493,1.398,1.192,-1.645,0.452,0.524,0.316,-0.304,-0.771,-0.634,-0.68,-0.215,-0.531,-0.249
0.441,-1.885,-0.485,1.4,1.185,-1.643,0.458,0.524,0.316,-0.304,-0.772,-0.635,-0.682,-0.214,-0.529,-0.249
0.442,-1.878,-0.478,1.399,1.178,-1.639,0.461,0.527,0.315,-0.302,-0.77,-0.633,-0.679,-0.213,-0.528,-0.247
0.443,-1.877,-0.476,1.401,1.177,-1.639,0.462,0.528,0.318,-0.3,-0.768,-0.63,-0.676,-0.212,-0.527,-0.247
0.444,-1.883,-0.481,1.403,1.182,-1.643,0.461,0.529,0.317,-0.303,-0.772,-0.632,-0.679,-0.212,-0.528,-0.248
0.445,-1.883,-0.483,1.399,1.183,-1.641,0.458,0.527,0.318,-0.302,-0.77,-0.629,-0.678,-0.211,-0.529,-0.251
0.446,-1.889,-0.488,1.4,1.188,-1.644,0.456,0.523,0.319,-0.304,-0.772,-0.633,-0.68,-0.212,-0.522,-0.249
0.447,-1.886,-0.484,1.401,1.185,-1.643,0.458,0.524,0.316,-0.305,-0.775,-0.633,-0.681,-0.212,-0.521,-0.249
0.448,-1.886,-0.485,1.401,1.185,-1.643,0.458,0.523,0.315,-0.304,-0.774,-0.632,-0.679,-0.208,-0.525,-0.248
0.449,-1.897,-0.496,1.401,1.196,-1.649,0.453,0.521,0.313,-0.307,-0.777,-0.634,-0.682,-0.208,-0.525,-0.244
0.45,-1.901,-0.5,1.401,1.201,-1.651,0.45,0.523,0.315,-0.304,-0.773,-0.63,-0.679,-0.207,-0.525,-0.245
0.451,-1.907,-0.506,1.4,1.206,-1.653,0.447,0.524,0.313,-0.305,-0.773,-0.63,-0.68,-0.207,-0.53,-0.246
0.452,-1.905,-0.503,1.401,1.204,-1.653,0.449,0.519,0.308,-0.312,-0.777,-0.635,-0.684,-0.212,-0.527,-0.247
0.453,-1.906,-0.503,1.403,1.204,-1.655,0.45,0.519,0.308,-0.312,-0.779,-0.634,-0.683,-0.214,-0.524,-0.251
0.454,-1.91,-0.506,1.403,1.208,-1.657,0.449,0.52,0.307,-0.314,-0.78,-0.635,-0.685,-0.218,-0.524,-0.249
0.455,-1.907,-0.505,1.401,1.206,-1.654,0.448,0.516,0.303,-0.314,-0.782,-0.641,-0.684,-0.221,-0.525,-0.252
0.456,-1.903,-0.5,1.402,1.202,-1.653,0.451,0.519,0.305,-0.31,-0.78,-0.637,-0.681,-0.22,-0.528,-0.254
0.457,-1.896,-0.491,1.405,1.194,-1.651,0.457,0.523,0.309,-0.31,-0.777,-0.635,-0.681,-0.222,-0.525,-0.256
0.458,-1.888,-0.49,1.399,1.189,-1.643,0.455,0.522,0.308,-0.31,-0.777,-0.635,-0.678,-0.223,-0.526,-0.255
0.459,-1.891,-0.487,1.403,1.188,-1.647,0.459,0.526,0.313,-0.306,-0.77,-0.626,-0.672,-0.224,-0.526,-0.254
0.46,-1.885,-0.48,1.405,1.183,-1.645,0.463,0.532,0.32,-0.299,-0.765,-0.621,-0.667,-0.226,-0.53,-0.255
0.461,-1.866,-0.474,1.391,1.171,-1.629,0.459,0.533,0.319,-0.3,-0.767,-0.622,-0.665,-0.226,-0.535,-0.252
0.462,-1.867,-0.477,1.39,1.172,-1.629,0.457,0.532,0.316,-0.302,-0.768,-0.621,-0.665,-0.227,-0.528,-0.255
0.463,-1.883,-0.482,1.401,1.183,-1.641,0.459,0.532,0.317,-0.299,-0.766,-0.618,-0.668,-0.229,-0.531,-0.256
0.464,-1.887,-0.485,1.401,1.186,-1.644,0.458,0.527,0.316,-0.302,-0.767,-0.625,-0.672,-0.229,-0.528,-0.253
0.465,-1.887,-0.491,1.395,1.19,-1.641,0.452,0.525,0.314,-0.305,-0.772,-0.63,-0.676,-0.228,-0.523,-0.253
0.466,-1.893,-0.496,1.397,1.194,-1.645,0.451,0.526,0.314,-0.305,-0.773,-0.626,-0.675,-0.227,-0.53,-0.252
0.467,-1.885,-0.489,1.396,1.187,-1.641,0.454,0.527,0.315,-0.302,-0.769,-0.624,-0.672,-0.225,-0.528,-0.253
0.468,-1.883,-0.489,1.393,1.186,-1.638,0.452,0.524,0.313,-0.302,-0.768,-0.624,-0.672,-0.222,-0.53,-0.255
0.469,-1.887,-0.491,1.395,1.188,-1.641,0.453,0.524,0.317,-0.302,-0.769,-0.623,-0.674,-0.223,-0.532,-0.256
0.47,-1.889,-0.488,1.401,1.189,-1.645,0.457,0.527,0.315,-0.305,-0.772,-0.628,-0.68,-0.227,-0.526,-0.255
0.471,-1.89,-0.485,1.405,1.188,-1.647,0.46,0.528,0.314,-0.305,-0.773,-0.63,-0.683,-0.227,-0.524,-0.254
0.472,-1.88,-0.482,1.397,1.181,-1.639,0.458,0.532,0.318,-0.3,-0.768,-0.625,-0.68,-0.224,-0.527,-0.254
0.473,-1.881,-0.485,1.395,1.183,-1.639,0.455,0.532,0.313,-0.303,-0.768,-0.626,-0.681,-0.226,-0.527,-0.254
0.474,-1.882,-0.481,1.401,1.181,-1.641,0.46,0.53,0.315,-0.303,-0.769,-0.63,-0.685,-0.229,-0.525,-0.256
0.475,-1.889,-0.484,1.405,1.187,-1.647,0.46,0.526,0.316,-0.305,-0.77,-0.634,-0.69,-0.226,-0.527,-0.255
0.476,-1.895,-0.487,1.408,1.192,-1.652,0.461,0.527,0.314,-0.307,-0.772,-0.636,-0.691,-0.227,-0.526,-0.253
0.477,-1.889,-0.483,1.405,1.186,-1.647,0.461,0.529,0.317,-0.304,-0.77,-0.635,-0.691,-0.227,-0.526,-0.252
0.478,-1.887,-0.485,1.401,1.186,-1.644,0.458,0.528,0.317,-0.304,-0.771,-0.634,-0.69,-0.228,-0.528,-0.251
0.479,-1.897,-0.49,1.406,1.193,-1.651,0.458,0.53,0.317,-0.303,-0.77,-0.633,-0.69,-0.23,-0.528,-0.254
0.48,-1.89,-0.488,1.402,1.189,-1.646,0.457,0.529,0.314,-0.305,-0.771,-0.635,-0.69,-0.229,-0.529,-0.257
0.481,-1.884,-0.484,1.399,1.184,-1.642,0.458,0.528,0.312,-0.306,-0.772,-0.635,-0.687,-0.229,-0.523,-0.256
0.482,-1.888,-0.482,1.406,1.185,-1.647,0.462,0.531,0.316,-0.302,-0.768,-0.628,-0.682,-0.226,-0.516,-0.256
0.483,-1.881,-0.474,1.407,1.177,-1.644,0.467,0.533,0.318,-0.299,-0.765,-0.624,-0.676,-0.223,-0.519,-0.252
0.484,-1.879,-0.472,1.406,1.175,-1.643,0.467,0.533,0.316,-0.299,-0.763,-0.622,-0.673,-0.221,-0.518,-0.254
0.485,-1.888,-0.483,1.405,1.186,-1.646,0.461,0.531,0.316,-0.3,-0.767,-0.625,-0.672,-0.217,-0.516,-0.253
0.486,-1.899,-0.496,1.403,1.198,-1.651,0.454,0.526,0.312,-0.304,-0.773,-0.63,-0.675,-0.215,-0.509,-0.252
0.487,-1.905,-0.5,1.405,1.202,-1.655,0.453,0.52,0.309,-0.307,-0.774,-0.63,-0.677,-0.214,-0.506,-0.256
0.488,-1.907,-0.498,1.409,1.202,-1.658,0.456,0.522,0.311,-0.304,-0.771,-0.627,-0.676,-0.212,-0.504,-0.258
0.489,-1.903,-0.493,1.409,1.198,-1.655,0.458,0.525,0.312,-0.301,-0.771,-0.626,-0.675,-0.214,-0.501,-0.259
0.49,-1.891,-0.485,1.407,1.188,-1.649,0.461,0.524,0.314,-0.298,-0.768,-0.626,-0.675,-0.214,-0.506,-0.259
0.491,-1.887,-0.476,1.411,1.182,-1.649,0.468,0.53,0.318,-0.295,-0.763,-0.626,-0.675,-0.212,-0.502,-0.258
0.492,-1.89,-0.476,1.413,1.183,-1.651,0.469,0.534,0.32,-0.295,-0.764,-0.627,-0.678,-0.213,-0.503,-0.257
0.493,-1.896,-0.479,1.417,1.188,-1.656,0.469,0.534,0.323,-0.294,-0.763,-0.629,-0.68,-0.211,-0.507,-0.259
0.494,-1.905,-0.489,1.416,1.197,-1.66,0.464,0.534,0.323,-0.297,-0.765,-0.63,-0.68,-0.205,-0.51,-0.26
0.495,-1.904,-0.492,1.412,1.198,-1.658,0.46,0.534,0.32,-0.296,-0.765,-0.627,-0.677,-0.202,-0.506,-0.26
0.496,-1.905,-0.485,1.419,1.195,-1.662,0.467,0.542,0.322,-0.293,-0.762,-0.627,-0.678,-0.206,-0.497,-0.261
0.497,-1.909,-0.486,1.423,1.198,-1.667,0.469,0.546,0.322,-0.294,-0.761,-0.629,-0.682,-0.209,-0.498,-0.265
0.498,-1.913,-0.487,1.425,1.2,-1.669,0.469,0.546,0.321,-0.294,-0.761,-0.626,-0.68,-0.208,-0.493,-0.267
0.499,-1.91,-0.478,1.431,1.194,-1.671,0.476,0.552,0.326,-0.29,-0.758,-0.622,-0.678,-0.208,-0.487,-0.268
0.5,-1.89,-0.46,1.431,1.175,-1.66,0.485,0.558,0.331,-0.286,-0.754,-0.617,-0.672,-0.208,-0.486,-0.268
0.501,-1.877,-0.448,1.43,1.163,-1.653,0.491,0.561,0.337,-0.28,-0.75,-0.614,-0.667,-0.21,-0.48,-0.267
0.502,-1.887,-0.452,1.436,1.169,-1.661,0.492,0.568,0.339,-0.277,-0.746,-0.609,-0.669,-0.218,-0.477,-0.275
0.503,-1.883,-0.445,1.438,1.164,-1.661,0.497,0.573,0.343,-0.275,-0.745,-0.608,-0.666,-0.225,-0.472,-0.279
0.504,-1.871,-0.429,1.442,1.15,-1.657,0.506,0.571,0.347,-0.271,-0.744,-0.608,-0.663,-0.227,-0.469,-0.276
0.505,-1.875,-0.427,1.448,1.151,-1.662,0.511,0.566,0.345,-0.272,-0.744,-0.608,-0.664,-0.23,-0.466,-0.28
0.506,-1.877,-0.425,1.451,1.151,-1.663,0.513,0.563,0.343,-0.272,-0.743,-0.609,-0.665,-0.232,-0.466,-0.283
0.507,-1.877,-0.43,1.447,1.154,-1.662,0.508,0.559,0.34,-0.275,-0.746,-0.612,-0.667,-0.233,-0.471,-0.285
0.508,-1.883,-0.433,1.45,1.159,-1.667,0.508,0.562,0.34,-0.276,-0.748,-0.615,-0.669,-0.233,-0.469,-0.286
0.509,-1.885,-0.438,1.448,1.161,-1.666,0.505,0.569,0.343,-0.274,-0.747,-0.613,-0.669,-0.23,-0.472,-0.284
0.51,-1.877,-0.442,1.435,1.159,-1.657,0.497,0.566,0.343,-0.273,-0.744,-0.611,-0.667,-0.223,-0.477,-0.284
0.511,-1.877,-0.442,1.435,1.159,-1.656,0.496,0.566,0.345,-0.271,-0.743,-0.612,-0.668,-0.221,-0.478,-0.284
0.512,-1.887,-0.448,1.44,1.167,-1.663,0.495,0.569,0.344,-0.272,-0.745,-0.616,-0.674,-0.227,-0.474,-0.286
0.513,-1.887,-0.444,1.443,1.165,-1.665,0.499,0.569,0.344,-0.27,-0.744,-0.613,-0.672,-0.23,-0.47,-0.287
0.514,-1.887,-0.444,1.443,1.165,-1.665,0.499,0.573,0.348,-0.27,-0.742,-0.612,-0.672,-0.229,-0.469,-0.284
0.515,-1.881,-0.443,1.438,1.162,-1.66,0.498,0.581,0.35,-0.269,-0.742,-0.614,-0.671,-0.229,-0.473,-0.288
0.516,-1.873,-0.435,1.438,1.155,-1.656,0.501,0.58,0.35,-0.266,-0.739,-0.612,-0.671,-0.227,-0.475,-0.288
0.517,-1.877,-0.435,1.442,1.156,-1.659,0.503,0.58,0.354,-0.262,-0.735,-0.61,-0.671,-0.225,-0.475,-0.289
0.518,-1.875,-0.441,1.435,1.159,-1.655,0.497,0.584,0.355,-0.261,-0.733,-0.609,-0.669,-0.222,-0.483,-0.29
0.519,-1.883,-0.448,1.435,1.165,-1.658,0.493,0.58,0.353,-0.263,-0.736,-0.611,-0.67,-0.218,-0.483,-0.286
0.52,-1.877,-0.447,1.429,1.161,-1.653,0.491,0.58,0.359,-0.257,-0.731,-0.607,-0.668,-0.212,-0.483,-0.286
0.521,-1.862,-0.443,1.419,1.153,-1.641,0.488,0.584,0.358,-0.258,-0.73,-0.605,-0.666,-0.206,-0.485,-0.286
0.522,-1.865,-0.436,1.429,1.151,-1.647,0.496,0.588,0.362,-0.256,-0.73,-0.606,-0.669,-0.208,-0.485,-0.288
0.523,-1.857,-0.431,1.425,1.144,-1.641,0.497,0.587,0.367,-0.251,-0.724,-0.6,-0.667,-0.201,-0.486,-0.29
0.524,-1.858,-0.432,1.426,1.145,-1.642,0.497,0.586,0.367,-0.252,-0.726,-0.601,-0.667,-0.199,-0.484,-0.288
0.525,-1.867,-0.433,1.434,1.151,-1.651,0.5,0.585,0.37,-0.249,-0.724,-0.598,-0.667,-0.2,-0.485,-0.287
0.526,-1.866,-0.44,1.427,1.153,-1.646,0.493,0.58,0.37,-0.248,-0.723,-0.596,-0.666,-0.196,-0.491,-0.287
0.527,-1.859,-0.441,1.418,1.15,-1.639,0.488,0.578,0.368,-0.249,-0.723,-0.599,-0.665,-0.192,-0.499,-0.285
0.528,-1.86,-0.448,1.413,1.154,-1.636,0.482,0.579,0.37,-0.246,-0.719,-0.596,-0.66,-0.188,-0.509,-0.285
0.529,-1.876,-0.47,1.406,1.173,-1.641,0.468,0.576,0.369,-0.25,-0.724,-0.6,-0.665,-0.19,-0.513,-0.283
0.53,-1.871,-0.478,1.393,1.175,-1.632,0.458,0.57,0.365,-0.256,-0.728,-0.601,-0.665,-0.188,-0.513,-0.276
0.531,-1.865,-0.471,1.393,1.168,-1.629,0.461,0.567,0.369,-0.251,-0.722,-0.593,-0.654,-0.181,-0.521,-0.271
0.532,-1.861,-0.468,1.393,1.165,-1.627,0.463,0.56,0.366,-0.248,-0.716,-0.586,-0.651,-0.174,-0.522,-0.269
0.533,-1.848,-0.467,1.381,1.157,-1.615,0.457,0.553,0.361,-0.253,-0.72,-0.588,-0.65,-0.17,-0.517,-0.266
0.534,-1.855,-0.473,1.382,1.165,-1.619,0.455,0.549,0.36,-0.255,-0.722,-0.591,-0.649,-0.17,-0.519,-0.265
0.535,-1.869,-0.485,1.383,1.177,-1.626,0.449,0.537,0.352,-0.258,-0.724,-0.589,-0.65,-0.17,-0.52,-0.262
0.536,-1.867,-0.486,1.381,1.177,-1.625,0.448,0.536,0.348,-0.261,-0.727,-0.589,-0.648,-0.17,-0.521,-0.257
0.537,-1.868,-0.486,1.381,1.177,-1.625,0.448,0.531,0.344,-0.265,-0.728,-0.589,-0.649,-0.175,-0.521,-0.256
0.538,-1.873,-0.49,1.383,1.181,-1.628,0.447,0.521,0.34,-0.268,-0.73,-0.59,-0.648,-0.178,-0.527,-0.253
0.539,-1.871,-0.493,1.379,1.182,-1.625,0.443,0.513,0.336,-0.271,-0.735,-0.593,-0.648,-0.175,-0.529,-0.244
0.54,-1.866,-0.493,1.373,1.179,-1.62,0.44,0.506,0.33,-0.276,-0.739,-0.596,-0.65,-0.175,-0.526,-0.242
0.541,-1.865,-0.49,1.375,1.177,-1.619,0.442,0.508,0.326,-0.279,-0.739,-0.595,-0.647,-0.173,-0.528,-0.238
0.542,-1.871,-0.495,1.375,1.183,-1.623,0.44,0.496,0.317,-0.286,-0.746,-0.601,-0.65,-0.174,-0.53,-0.234
0.543,-1.875,-0.496,1.379,1.185,-1.627,0.442,0.485,0.308,-0.297,-0.754,-0.61,-0.654,-0.178,-0.527,-0.23
0.544,-1.863,-0.486,1.377,1.175,-1.621,0.446,0.479,0.3,-0.305,-0.761,-0.612,-0.654,-0.18,-0.52,-0.223
0.545,-1.865,-0.489,1.377,1.177,-1.621,0.444,0.471,0.291,-0.315,-0.77,-0.618,-0.658,-0.186,-0.514,-0.223
0.546,-1.877,-0.497,1.379,1.187,-1.628,0.441,0.465,0.28,-0.327,-0.781,-0.627,-0.665,-0.196,-0.511,-0.222
0.547,-1.873,-0.493,1.38,1.183,-1.627,0.444,0.46,0.272,-0.335,-0.787,-0.627,-0.664,-0.201,-0.508,-0.217
0.548,-1.871,-0.488,1.383,1.179,-1.627,0.448,0.463,0.272,-0.334,-0.785,-0.626,-0.663,-0.204,-0.502,-0.217
0.549,-1.872,-0.485,1.387,1.179,-1.629,0.451,0.468,0.271,-0.333,-0.789,-0.629,-0.664,-0.206,-0.502,-0.22
0.55,-1.871,-0.482,1.389,1.177,-1.63,0.453,0.469,0.269,-0.336,-0.79,-0.63,-0.665,-0.209,-0.504,-0.22
0.551,-1.871,-0.479,1.392,1.175,-1.632,0.456,0.468,0.271,-0.335,-0.786,-0.63,-0.664,-0.211,-0.502,-0.216
0.552,-1.875,-0.482,1.393,1.179,-1.634,0.456,0.471,0.272,-0.333,-0.787,-0.63,-0.662,-0.208,-0.505,-0.216
0.553,-1.884,-0.495,1.389,1.19,-1.636,0.447,0.471,0.27,-0.337,-0.79,-0.632,-0.664,-0.204,-0.509,-0.213
0.554,-1.889,-0.502,1.387,1.196,-1.637,0.442,0.469,0.266,-0.342,-0.795,-0.638,-0.669,-0.204,-0.508,-0.212
0.555,-1.895,-0.5,1.395,1.198,-1.645,0.447,0.468,0.263,-0.344,-0.798,-0.642,-0.673,-0.209,-0.501,-0.209
0.556,-1.895,-0.493,1.401,1.194,-1.648,0.454,0.467,0.262,-0.347,-0.8,-0.643,-0.672,-0.209,-0.497,-0.204
0.557,-1.884,-0.486,1.397,1.185,-1.641,0.456,0.462,0.259,-0.349,-0.8,-0.643,-0.671,-0.207,-0.497,-0.2
0.558,-1.881,-0.492,1.388,1.187,-1.635,0.448,0.459,0.257,-0.349,-0.799,-0.643,-0.671,-0.206,-0.5,-0.193
0.559,-1.871,-0.495,1.376,1.183,-1.623,0.44,0.46,0.257,-0.348,-0.799,-0.639,-0.666,-0.201,-0.501,-0.187
0.56,-1.865,-0.492,1.373,1.179,-1.619,0.44,0.46,0.259,-0.346,-0.797,-0.636,-0.662,-0.199,-0.501,-0.185
0.561,-1.857,-0.495,1.362,1.176,-1.609,0.433,0.457,0.259,-0.346,-0.795,-0.633,-0.661,-0.197,-0.499,-0.184
0.562,-1.855,-0.497,1.357,1.176,-1.606,0.43,0.457,0.259,-0.347,-0.795,-0.63,-0.658,-0.196,-0.49,-0.182
0.563,-1.856,-0.491,1.365,1.174,-1.611,0.437,0.45,0.256,-0.349,-0.796,-0.63,-0.656,-0.196,-0.48,-0.176
0.564,-1.853,-0.489,1.363,1.171,-1.609,0.437,0.442,0.253,-0.35,-0.796,-0.631,-0.652,-0.191,-0.473,-0.171
0.565,-1.852,-0.489,1.363,1.171,-1.607,0.436,0.439,0.251,-0.349,-0.794,-0.628,-0.651,-0.192,-0.471,-0.169
0.566,-1.847,-0.484,1.363,1.166,-1.605,0.44,0.441,0.247,-0.348,-0.792,-0.624,-0.649,-0.191,-0.469,-0.17
0.567,-1.849,-0.482,1.367,1.165,-1.607,0.443,0.44,0.25,-0.347,-0.79,-0.622,-0.646,-0.194,-0.46,-0.168
0.568,-1.847,-0.482,1.365,1.165,-1.607,0.442,0.433,0.247,-0.35,-0.79,-0.621,-0.646,-0.193,-0.453,-0.166
0.569,-1.837,-0.486,1.351,1.162,-1.594,0.432,0.425,0.239,-0.355,-0.793,-0.623,-0.647,-0.186,-0.447,-0.163
0.57,-1.845,-0.491,1.355,1.169,-1.6,0.431,0.423,0.237,-0.355,-0.793,-0.623,-0.649,-0.187,-0.447,-0.161
0.571,-1.856,-0.489,1.367,1.173,-1.611,0.439,0.433,0.241,-0.353,-0.79,-0.615,-0.645,-0.186,-0.455,-0.162
0.572,-1.856,-0.491,1.365,1.173,-1.611,0.437,0.433,0.247,-0.347,-0.787,-0.614,-0.646,-0.185,-0.453,-0.165
0.573,-1.867,-0.507,1.36,1.187,-1.613,0.426,0.432,0.249,-0.347,-0.79,-0.622,-0.651,-0.184,-0.458,-0.167
0.574,-1.869,-0.516,1.353,1.193,-1.611,0.418,0.438,0.25,-0.347,-0.789,-0.625,-0.652,-0.183,-0.471,-0.17
0.575,-1.874,-0.523,1.351,1.198,-1.612,0.413,0.443,0.256,-0.342,-0.783,-0.618,-0.65,-0.18,-0.472,-0.172
0.576,-1.881,-0.534,1.347,1.208,-1.614,0.406,0.443,0.254,-0.344,-0.785,-0.62,-0.653,-0.175,-0.474,-0.172
0.577,-1.871,-0.529,1.341,1.2,-1.606,0.406,0.441,0.254,-0.344,-0.784,-0.62,-0.654,-0.173,-0.477,-0.17
0.578,-1.869,-0.528,1.341,1.198,-1.605,0.406,0.441,0.256,-0.342,-0.782,-0.616,-0.652,-0.171,-0.48,-0.169
0.579,-1.867,-0.527,1.34,1.197,-1.603,0.406,0.443,0.258,-0.342,-0.784,-0.617,-0.649,-0.17,-0.484,-0.167
0.58,-1.857,-0.515,1.341,1.185,-1.599,0.413,0.449,0.261,-0.34,-0.783,-0.616,-0.646,-0.168,-0.481,-0.164
0.581,-1.842,-0.495,1.347,1.169,-1.595,0.426,0.458,0.26,-0.339,-0.782,-0.613,-0.643,-0.17,-0.483,-0.167
0.582,-1.821,-0.471,1.351,1.146,-1.586,0.44,0.469,0.266,-0.334,-0.777,-0.609,-0.638,-0.174,-0.483,-0.17
0.583,-1.813,-0.459,1.355,1.135,-1.583,0.448,0.475,0.272,-0.327,-0.772,-0.605,-0.635,-0.177,-0.477,-0.172
0.584,-1.811,-0.458,1.353,1.135,-1.583,0.448,0.485,0.279,-0.322,-0.769,-0.602,-0.633,-0.181,-0.478,-0.177
0.585,-1.812,-0.467,1.345,1.139,-1.579,0.44,0.489,0.282,-0.32,-0.769,-0.604,-0.635,-0.183,-0.488,-0.182
0.586,-1.822,-0.468,1.353,1.145,-1.588,0.443,0.491,0.285,-0.318,-0.769,-0.603,-0.638,-0.186,-0.489,-0.19
0.587,-1.831,-0.465,1.367,1.148,-1.599,0.451,0.499,0.29,-0.314,-0.768,-0.603,-0.64,-0.192,-0.487,-0.198
0.588,-1.843,-0.467,1.377,1.155,-1.61,0.455,0.503,0.29,-0.315,-0.769,-0.607,-0.647,-0.196,-0.491,-0.205
0.589,-1.855,-0.468,1.387,1.161,-1.621,0.46,0.508,0.29,-0.316,-0.77,-0.609,-0.652,-0.203,-0.49,-0.212
0.59,-1.857,-0.467,1.39,1.163,-1.624,0.462,0.509,0.292,-0.316,-0.77,-0.613,-0.656,-0.205,-0.49,-0.217
0.591,-1.864,-0.47,1.394,1.167,-1.629,0.462,0.515,0.299,-0.311,-0.766,-0.61,-0.656,-0.204,-0.5,-0.22
0.592,-1.869,-0.475,1.393,1.172,-1.631,0.459,0.517,0.302,-0.308,-0.764,-0.611,-0.658,-0.206,-0.504,-0.225
0.593,-1.87,-0.473,1.397,1.172,-1.633,0.462,0.515,0.3,-0.309,-0.764,-0.613,-0.66,-0.209,-0.5,-0.229
0.594,-1.879,-0.482,1.397,1.181,-1.639,0.458,0.517,0.301,-0.308,-0.762,-0.612,-0.661,-0.207,-0.505,-0.229
0.595,-1.877,-0.489,1.388,1.183,-1.633,0.45,0.515,0.299,-0.309,-0.764,-0.617,-0.663,-0.205,-0.507,-0.231
0.596,-1.877,-0.489,1.388,1.183,-1.633,0.45,0.513,0.294,-0.311,-0.767,-0.618,-0.661,-0.203,-0.504,-0.231
0.597,-1.893,-0.492,1.4,1.192,-1.647,0.454,0.511,0.294,-0.314,-0.77,-0.619,-0.661,-0.203,-0.504,-0.23
0.598,-1.893,-0.488,1.405,1.19,-1.649,0.458,0.515,0.295,-0.314,-0.769,-0.62,-0.663,-0.207,-0.503,-0.234
0.599,-1.888,-0.485,1.403,1.187,-1.645,0.46,0.52,0.297,-0.312,-0.768,-0.622,-0.663,-0.207,-0.501,-0.238
0.6,-1.899,-0.49,1.409,1.195,-1.654,0.459,0.518,0.293,-0.316,-0.772,-0.625,-0.67,-0.21,-0.499,-0.241
0.601,-1.905,-0.491,1.413,1.198,-1.659,0.461,0.519,0.294,-0.314,-0.77,-0.625,-0.673,-0.213,-0.502,-0.243
0.602,-1.907,-0.49,1.417,1.198,-1.662,0.464,0.525,0.3,-0.312,-0.77,-0.626,-0.672,-0.211,-0.508,-0.244
0.603,-1.908,-0.493,1.415,1.2,-1.661,0.461,0.525,0.299,-0.315,-0.774,-0.627,-0.672,-0.211,-0.511,-0.245
0.604,-1.901,-0.49,1.411,1.196,-1.656,0.46,0.528,0.299,-0.316,-0.773,-0.625,-0.671,-0.21,-0.516,-0.244
0.605,-1.893,-0.491,1.402,1.192,-1.647,0.456,0.53,0.295,-0.319,-0.776,-0.631,-0.671,-0.207,-0.519,-0.24
0.606,-1.9,-0.503,1.397,1.202,-1.649,0.447,0.529,0.297,-0.32,-0.781,-0.636,-0.676,-0.208,-0.519,-0.24
0.607,-1.917,-0.515,1.401,1.216,-1.659,0.444,0.532,0.299,-0.32,-0.782,-0.639,-0.679,-0.212,-0.529,-0.241
0.608,-1.927,-0.524,1.402,1.226,-1.664,0.439,0.532,0.296,-0.323,-0.788,-0.645,-0.683,-0.22,-0.536,-0.241
0.609,-1.931,-0.53,1.401,1.231,-1.666,0.435,0.529,0.293,-0.329,-0.794,-0.651,-0.69,-0.223,-0.534,-0.243
0.61,-1.931,-0.531,1.399,1.232,-1.665,0.434,0.53,0.291,-0.33,-0.795,-0.651,-0.691,-0.222,-0.538,-0.243
0.611,-1.94,-0.538,1.401,1.238,-1.67,0.431,0.527,0.289,-0.333,-0.796,-0.653,-0.694,-0.228,-0.54,-0.241
0.612,-1.942,-0.546,1.396,1.244,-1.669,0.424,0.523,0.284,-0.339,-0.803,-0.662,-0.699,-0.234,-0.54,-0.238
0.613,-1.938,-0.545,1.393,1.242,-1.665,0.424,0.526,0.287,-0.337,-0.802,-0.661,-0.699,-0.237,-0.541,-0.239
0.614,-1.933,-0.54,1.393,1.236,-1.663,0.426,0.527,0.284,-0.337,-0.802,-0.658,-0.695,-0.235,-0.541,-0.237
0.615,-1.919,-0.53,1.389,1.225,-1.653,0.429,0.53,0.286,-0.336,-0.8,-0.655,-0.69,-0.233,-0.542,-0.234
0.616,-1.915,-0.527,1.387,1.221,-1.651,0.43,0.531,0.29,-0.332,-0.795,-0.648,-0.688,-0.234,-0.54,-0.232
0.617,-1.907,-0.524,1.383,1.216,-1.645,0.429,0.526,0.285,-0.334,-0.798,-0.65,-0.689,-0.233,-0.537,-0.227
0.618,-1.905,-0.519,1.386,1.212,-1.645,0.433,0.524,0.286,-0.334,-0.796,-0.648,-0.687,-0.234,-0.529,-0.228
0.619,-1.918,-0.528,1.389,1.223,-1.653,0.431,0.525,0.283,-0.335,-0.796,-0.647,-0.689,-0.237,-0.529,-0.23
0.62,-1.912,-0.524,1.389,1.218,-1.651,0.432,0.527,0.284,-0.333,-0.795,-0.646,-0.689,-0.237,-0.528,-0.23
0.621,-1.895,-0.509,1.387,1.202,-1.641,0.439,0.529,0.287,-0.331,-0.791,-0.641,-0.684,-0.233,-0.525,-0.229
0.622,-1.891,-0.508,1.383,1.2,-1.637,0.438,0.527,0.285,-0.332,-0.792,-0.642,-0.687,-0.232,-0.527,-0.229
0.623,-1.895,-0.515,1.381,1.206,-1.638,0.432,0.526,0.283,-0.334,-0.792,-0.642,-0.69,-0.232,-0.53,-0.233
0.624,-1.903,-0.521,1.382,1.212,-1.643,0.43,0.526,0.284,-0.334,-0.792,-0.642,-0.691,-0.233,-0.535,-0.234
0.625,-1.904,-0.523,1.381,1.214,-1.643,0.429,0.525,0.285,-0.333,-0.793,-0.642,-0.691,-0.234,-0.538,-0.234
0.626,-1.901,-0.525,1.377,1.214,-1.639,0.425,0.524,0.284,-0.335,-0.792,-0.641,-0.689,-0.232,-0.539,-0.234
0.627,-1.903,-0.521,1.381,1.212,-1.641,0.429,0.526,0.286,-0.333,-0.791,-0.642,-0.688,-0.233,-0.539,-0.233
0.628,-1.899,-0.517,1.381,1.208,-1.64,0.432,0.526,0.288,-0.331,-0.788,-0.638,-0.683,-0.23,-0.539,-0.233
0.629,-1.902,-0.518,1.383,1.21,-1.643,0.432,0.523,0.287,-0.329,-0.786,-0.636,-0.681,-0.229,-0.542,-0.233
0.63,-1.905,-0.523,1.382,1.214,-1.644,0.429,0.522,0.286,-0.331,-0.787,-0.637,-0.682,-0.229,-0.54,-0.233
0.631,-1.909,-0.532,1.377,1.22,-1.643,0.422,0.521,0.284,-0.334,-0.79,-0.641,-0.684,-0.229,-0.545,-0.233
0.632,-1.911,-0.532,1.379,1.222,-1.645,0.423,0.521,0.284,-0.335,-0.792,-0.642,-0.681,-0.228,-0.55,-0.23
0.633,-1.911,-0.53,1.381,1.221,-1.645,0.425,0.52,0.285,-0.333,-0.789,-0.637,-0.677,-0.223,-0.54,-0.231
0.634,-1.915,-0.532,1.382,1.224,-1.649,0.424,0.522,0.286,-0.333,-0.789,-0.64,-0.678,-0.222,-0.538,-0.23
0.635,-1.898,-0.517,1.381,1.208,-1.639,0.431,0.525,0.287,-0.331,-0.789,-0.639,-0.676,-0.22,-0.535,-0.229
0.636,-1.888,-0.513,1.375,1.2,-1.631,0.43,0.521,0.284,-0.331,-0.787,-0.637,-0.675,-0.215,-0.533,-0.23
0.637,-1.899,-0.523,1.375,1.212,-1.637,0.426,0.518,0.285,-0.333,-0.789,-0.642,-0.68,-0.218,-0.54,-0.229
0.638,-1.904,-0.522,1.382,1.213,-1.643,0.43,0.516,0.283,-0.335,-0.792,-0.644,-0.683,-0.222,-0.537,-0.226
0.639,-1.904,-0.519,1.385,1.212,-1.645,0.433,0.516,0.281,-0.336,-0.793,-0.644,-0.682,-0.219,-0.531,-0.225
0.64,-1.909,-0.525,1.384,1.217,-1.647,0.429,0.519,0.282,-0.338,-0.794,-0.645,-0.681,-0.218,-0.531,-0.226
0.641,-1.903,-0.524,1.378,1.214,-1.641,0.426,0.517,0.284,-0.335,-0.792,-0.644,-0.679,-0.222,-0.533,-0.224
0.642,-1.897,-0.524,1.373,1.211,-1.635,0.424,0.519,0.285,-0.333,-0.79,-0.644,-0.679,-0.225,-0.532,-0.225
0.643,-1.905,-0.531,1.373,1.218,-1.639,0.421,0.521,0.282,-0.335,-0.791,-0.647,-0.681,-0.227,-0.533,-0.228
0.644,-1.909,-0.53,1.379,1.22,-1.644,0.424,0.521,0.284,-0.333,-0.789,-0.645,-0.68,-0.226,-0.534,-0.226
0.645,-1.906,-0.528,1.379,1.217,-1.643,0.425,0.517,0.283,-0.335,-0.791,-0.65,-0.683,-0.226,-0.532,-0.224
0.646,-1.903,-0.526,1.377,1.214,-1.64,0.425,0.517,0.279,-0.34,-0.795,-0.654,-0.685,-0.222,-0.529,-0.225
0.647,-1.914,-0.532,1.382,1.223,-1.648,0.425,0.517,0.279,-0.341,-0.796,-0.654,-0.691,-0.225,-0.524,-0.225
0.648,-1.903,-0.524,1.377,1.214,-1.64,0.426,0.518,0.282,-0.335,-0.79,-0.648,-0.687,-0.222,-0.529,-0.221
0.649,-1.889,-0.513,1.375,1.2,-1.632,0.431,0.517,0.284,-0.33,-0.787,-0.644,-0.679,-0.216,-0.532,-0.223
0.65,-1.901,-0.516,1.385,1.209,-1.643,0.434,0.515,0.286,-0.331,-0.786,-0.646,-0.681,-0.223,-0.527,-0.228
0.651,-1.904,-0.519,1.385,1.212,-1.645,0.433,0.52,0.288,-0.331,-0.784,-0.645,-0.682,-0.227,-0.533,-0.229
0.652,-1.908,-0.53,1.378,1.219,-1.643,0.424,0.517,0.283,-0.335,-0.791,-0.648,-0.688,-0.227,-0.536,-0.228
0.653,-1.911,-0.533,1.378,1.222,-1.645,0.422,0.517,0.285,-0.333,-0.791,-0.647,-0.688,-0.224,-0.536,-0.228
0.654,-1.908,-0.532,1.376,1.22,-1.642,0.422,0.518,0.286,-0.333,-0.79,-0.646,-0.686,-0.223,-0.536,-0.229
0.655,-1.91,-0.532,1.377,1.222,-1.643,0.422,0.517,0.285,-0.334,-0.791,-0.645,-0.685,-0.221,-0.535,-0.226
0.656,-1.903,-0.531,1.373,1.218,-1.638,0.421,0.521,0.29,-0.328,-0.786,-0.642,-0.683,-0.217,-0.538,-0.228
0.657,-1.904,-0.534,1.369,1.219,-1.637,0.417,0.522,0.291,-0.329,-0.784,-0.642,-0.683,-0.221,-0.541,-0.229
0.658,-1.907,-0.527,1.38,1.218,-1.644,0.426,0.519,0.289,-0.331,-0.786,-0.643,-0.685,-0.223,-0.535,-0.226
0.659,-1.907,-0.529,1.377,1.218,-1.642,0.424,0.512,0.282,-0.335,-0.793,-0.65,-0.691,-0.22,-0.528,-0.226
0.66,-1.904,-0.528,1.376,1.216,-1.64,0.424,0.515,0.283,-0.337,-0.793,-0.65,-0.691,-0.22,-0.531,-0.225
0.661,-1.887,-0.511,1.376,1.199,-1.631,0.433,0.521,0.288,-0.33,-0.786,-0.645,-0.684,-0.221,-0.529,-0.222
0.662,-1.885,-0.511,1.373,1.198,-1.629,0.431,0.523,0.289,-0.329,-0.785,-0.643,-0.683,-0.227,-0.527,-0.226
0.663,-1.894,-0.517,1.377,1.206,-1.635,0.43,0.519,0.287,-0.33,-0.789,-0.644,-0.688,-0.231,-0.529,-0.23
0.664,-1.899,-0.515,1.383,1.207,-1.641,0.434,0.517,0.287,-0.329,-0.788,-0.644,-0.686,-0.231,-0.529,-0.229
0.665,-1.894,-0.511,1.383,1.203,-1.639,0.435,0.518,0.289,-0.328,-0.786,-0.64,-0.682,-0.233,-0.527,-0.232
0.666,-1.896,-0.512,1.383,1.204,-1.639,0.435,0.518,0.289,-0.327,-0.786,-0.638,-0.682,-0.234,-0.523,-0.233
0.667,-1.902,-0.515,1.387,1.208,-1.645,0.436,0.52,0.29,-0.325,-0.784,-0.636,-0.681,-0.231,-0.521,-0.232
0.668,-1.894,-0.513,1.381,1.204,-1.637,0.433,0.52,0.289,-0.327,-0.787,-0.636,-0.678,-0.226,-0.522,-0.23
0.669,-1.895,-0.513,1.381,1.204,-1.637,0.434,0.519,0.291,-0.325,-0.786,-0.632,-0.674,-0.221,-0.525,-0.231
0.67,-1.889,-0.511,1.377,1.2,-1.633,0.433,0.52,0.295,-0.32,-0.781,-0.629,-0.669,-0.218,-0.53,-0.231
0.671,-1.885,-0.512,1.373,1.199,-1.629,0.43,0.52,0.295,-0.319,-0.78,-0.632,-0.666,-0.217,-0.533,-0.227
0.672,-1.879,-0.509,1.371,1.194,-1.625,0.431,0.524,0.299,-0.314,-0.774,-0.625,-0.661,-0.217,-0.529,-0.228
0.673,-1.88,-0.51,1.369,1.196,-1.625,0.429,0.524,0.299,-0.316,-0.774,-0.623,-0.662,-0.22,-0.529,-0.23
0.674,-1.889,-0.52,1.369,1.204,-1.629,0.424,0.519,0.29,-0.324,-0.78,-0.629,-0.667,-0.221,-0.523,-0.231
0.675,-1.891,-0.521,1.369,1.206,-1.63,0.423,0.518,0.286,-0.327,-0.783,-0.632,-0.672,-0.222,-0.517,-0.234
0.676,-1.896,-0.52,1.375,1.208,-1.636,0.427,0.52,0.29,-0.324,-0.782,-0.631,-0.673,-0.223,-0.525,-0.233
0.677,-1.889,-0.515,1.375,1.202,-1.631,0.429,0.525,0.293,-0.322,-0.778,-0.631,-0.671,-0.221,-0.532,-0.232
0.678,-1.889,-0.513,1.376,1.201,-1.633,0.431,0.522,0.293,-0.324,-0.78,-0.634,-0.674,-0.221,-0.532,-0.23
0.679,-1.885,-0.516,1.369,1.201,-1.627,0.426,0.514,0.29,-0.324,-0.781,-0.635,-0.675,-0.219,-0.535,-0.232
0.68,-1.883,-0.521,1.361,1.202,-1.622,0.42,0.514,0.287,-0.325,-0.777,-0.633,-0.675,-0.218,-0.535,-0.234
0.681,-1.895,-0.523,1.371,1.21,-1.633,0.424,0.517,0.287,-0.324,-0.778,-0.629,-0.674,-0.216,-0.533,-0.232
0.682,-1.893,-0.519,1.373,1.206,-1.633,0.427,0.521,0.29,-0.322,-0.778,-0.629,-0.673,-0.214,-0.535,-0.232
0.683,-1.897,-0.518,1.379,1.207,-1.638,0.43,0.521,0.294,-0.318,-0.775,-0.629,-0.675,-0.215,-0.535,-0.231
0.684,-1.905,-0.524,1.381,1.214,-1.643,0.428,0.519,0.294,-0.321,-0.778,-0.63,-0.676,-0.213,-0.532,-0.227
0.685,-1.904,-0.527,1.377,1.216,-1.641,0.425,0.518,0.292,-0.323,-0.778,-0.631,-0.677,-0.212,-0.53,-0.227
0.686,-1.901,-0.528,1.373,1.214,-1.637,0.422,0.515,0.292,-0.325,-0.778,-0.629,-0.675,-0.21,-0.534,-0.229
0.687,-1.904,-0.531,1.373,1.218,-1.639,0.421,0.516,0.294,-0.325,-0.778,-0.629,-0.676,-0.214,-0.53,-0.229
0.688,-1.905,-0.529,1.375,1.217,-1.64,0.423,0.52,0.293,-0.323,-0.778,-0.633,-0.677,-0.217,-0.526,-0.229
0.689,-1.901,-0.529,1.373,1.216,-1.637,0.422,0.518,0.289,-0.325,-0.783,-0.635,-0.679,-0.214,-0.53,-0.229
0.69,-1.903,-0.523,1.381,1.213,-1.642,0.428,0.52,0.293,-0.323,-0.78,-0.629,-0.675,-0.21,-0.533,-0.229
0.691,-1.899,-0.52,1.379,1.21,-1.639,0.429,0.523,0.294,-0.32,-0.775,-0.624,-0.667,-0.205,-0.536,-0.229
0.692,-1.902,-0.529,1.373,1.216,-1.637,0.421,0.515,0.289,-0.324,-0.781,-0.628,-0.671,-0.207,-0.532,-0.227
0.693,-1.907,-0.532,1.375,1.22,-1.641,0.421,0.514,0.287,-0.325,-0.784,-0.635,-0.673,-0.212,-0.533,-0.228
0.694,-1.893,-0.523,1.37,1.208,-1.632,0.423,0.516,0.289,-0.325,-0.782,-0.631,-0.67,-0.213,-0.538,-0.229
0.695,-1.888,-0.52,1.367,1.204,-1.628,0.424,0.512,0.29,-0.323,-0.781,-0.626,-0.669,-0.213,-0.534,-0.229
0.696,-1.887,-0.51,1.377,1.199,-1.632,0.433,0.516,0.295,-0.317,-0.777,-0.625,-0.667,-0.215,-0.531,-0.233
0.697,-1.875,-0.499,1.375,1.188,-1.625,0.438,0.518,0.294,-0.319,-0.778,-0.629,-0.669,-0.217,-0.531,-0.228
0.698,-1.873,-0.498,1.375,1.185,-1.625,0.439,0.518,0.292,-0.319,-0.778,-0.628,-0.669,-0.217,-0.53,-0.228
0.699,-1.87,-0.487,1.383,1.179,-1.627,0.449,0.522,0.298,-0.314,-0.771,-0.621,-0.661,-0.216,-0.523,-0.232
0.7,-1.869,-0.487,1.383,1.179,-1.626,0.448,0.517,0.293,-0.32,-0.776,-0.625,-0.662,-0.216,-0.519,-0.229
0.701,-1.876,-0.493,1.383,1.185,-1.629,0.445,0.515,0.292,-0.322,-0.778,-0.627,-0.665,-0.216,-0.519,-0.229
0.702,-1.883,-0.504,1.379,1.194,-1.631,0.438,0.513,0.291,-0.324,-0.778,-0.629,-0.668,-0.212,-0.521,-0.232
0.703,-1.891,-0.514,1.377,1.202,-1.633,0.431,0.514,0.289,-0.326,-0.777,-0.628,-0.67,-0.213,-0.524,-0.233
0.704,-1.891,-0.51,1.38,1.2,-1.635,0.434,0.519,0.298,-0.318,-0.77,-0.621,-0.663,-0.216,-0.525,-0.234
0.705,-1.884,-0.512,1.371,1.198,-1.628,0.429,0.517,0.297,-0.318,-0.773,-0.626,-0.664,-0.216,-0.531,-0.233
0.706,-1.881,-0.514,1.367,1.198,-1.624,0.426,0.519,0.3,-0.317,-0.774,-0.627,-0.665,-0.218,-0.534,-0.231
0.707,-1.879,-0.512,1.367,1.196,-1.623,0.427,0.522,0.304,-0.312,-0.77,-0.621,-0.661,-0.216,-0.531,-0.232
0.708,-1.877,-0.512,1.365,1.195,-1.621,0.426,0.522,0.3,-0.316,-0.771,-0.624,-0.667,-0.215,-0.537,-0.23
0.709,-1.887,-0.519,1.369,1.203,-1.628,0.425,0.524,0.306,-0.312,-0.769,-0.624,-0.671,-0.215,-0.537,-0.234
0.71,-1.889,-0.518,1.371,1.204,-1.629,0.426,0.526,0.309,-0.309,-0.766,-0.624,-0.668,-0.211,-0.538,-0.234
0.711,-1.885,-0.52,1.365,1.203,-1.625,0.422,0.525,0.305,-0.31,-0.766,-0.624,-0.669,-0.208,-0.537,-0.234
0.712,-1.891,-0.523,1.368,1.207,-1.629,0.422,0.519,0.301,-0.315,-0.77,-0.627,-0.673,-0.207,-0.524,-0.233
0.713,-1.899,-0.52,1.379,1.21,-1.639,0.429,0.517,0.299,-0.318,-0.774,-0.633,-0.678,-0.209,-0.523,-0.23
0.714,-1.903,-0.521,1.382,1.212,-1.643,0.43,0.518,0.299,-0.316,-0.77,-0.629,-0.677,-0.208,-0.52,-0.233
0.715,-1.893,-0.514,1.379,1.204,-1.635,0.432,0.52,0.301,-0.312,-0.766,-0.624,-0.672,-0.202,-0.519,-0.234
0.716,-1.88,-0.509,1.371,1.194,-1.625,0.431,0.522,0.304,-0.308,-0.763,-0.62,-0.67,-0.201,-0.524,-0.232
0.717,-1.883,-0.511,1.372,1.197,-1.627,0.43,0.523,0.305,-0.307,-0.762,-0.619,-0.67,-0.208,-0.528,-0.233
0.718,-1.893,-0.514,1.379,1.204,-1.635,0.432,0.52,0.304,-0.308,-0.763,-0.623,-0.673,-0.215,-0.525,-0.234
0.719,-1.887,-0.513,1.373,1.2,-1.63,0.43,0.519,0.303,-0.309,-0.764,-0.621,-0.674,-0.212,-0.526,-0.235
0.72,-1.887,-0.513,1.375,1.2,-1.631,0.43,0.52,0.303,-0.308,-0.764,-0.621,-0.673,-0.21,-0.529,-0.232
0.721,-1.879,-0.503,1.375,1.191,-1.627,0.436,0.523,0.307,-0.307,-0.762,-0.622,-0.669,-0.211,-0.526,-0.229
0.722,-1.86,-0.49,1.369,1.175,-1.615,0.44,0.523,0.308,-0.305,-0.762,-0.623,-0.669,-0.207,-0.527,-0.227
0.723,-1.865,-0.497,1.368,1.181,-1.617,0.435,0.519,0.304,-0.308,-0.765,-0.625,-0.67,-0.206,-0.524,-0.227
0.724,-1.874,-0.5,1.373,1.187,-1.623,0.436,0.52,0.303,-0.311,-0.768,-0.629,-0.673,-0.213,-0.523,-0.227
0.725,-1.875,-0.498,1.377,1.186,-1.625,0.439,0.516,0.302,-0.311,-0.768,-0.63,-0.674,-0.214,-0.522,-0.226
0.726,-1.869,-0.505,1.363,1.187,-1.616,0.429,0.51,0.295,-0.319,-0.774,-0.634,-0.677,-0.209,-0.521,-0.227
0.727,-1.881,-0.504,1.377,1.192,-1.629,0.436,0.51,0.296,-0.318,-0.772,-0.633,-0.677,-0.213,-0.521,-0.23
0.728,-1.891,-0.496,1.395,1.194,-1.643,0.45,0.514,0.298,-0.316,-0.769,-0.629,-0.676,-0.219,-0.518,-0.232
0.729,-1.884,-0.495,1.389,1.19,-1.636,0.447,0.514,0.295,-0.322,-0.774,-0.632,-0.679,-0.217,-0.515,-0.232
0.73,-1.883,-0.486,1.397,1.185,-1.64,0.456,0.519,0.296,-0.32,-0.771,-0.629,-0.675,-0.215,-0.511,-0.234
0.731,-1.886,-0.484,1.402,1.185,-1.644,0.459,0.524,0.298,-0.316,-0.771,-0.628,-0.673,-0.218,-0.51,-0.236
0.732,-1.895,-0.485,1.41,1.19,-1.653,0.463,0.52,0.293,-0.32,-0.775,-0.63,-0.675,-0.221,-0.505,-0.241
0.733,-1.901,-0.481,1.42,1.191,-1.661,0.469,0.515,0.284,-0.329,-0.783,-0.637,-0.679,-0.223,-0.492,-0.242
0.734,-1.901,-0.477,1.425,1.19,-1.663,0.473,0.515,0.281,-0.332,-0.786,-0.64,-0.678,-0.224,-0.479,-0.244
0.735,-1.899,-0.47,1.429,1.185,-1.665,0.479,0.516,0.278,-0.333,-0.786,-0.635,-0.671,-0.218,-0.477,-0.247
0.736,-1.904,-0.471,1.433,1.188,-1.668,0.48,0.515,0.274,-0.338,-0.791,-0.637,-0.671,-0.217,-0.475,-0.252
0.737,-1.922,-0.471,1.45,1.196,-1.686,0.489,0.521,0.272,-0.339,-0.791,-0.637,-0.671,-0.223,-0.465,-0.254
0.738,-1.936,-0.474,1.462,1.205,-1.699,0.494,0.525,0.272,-0.341,-0.794,-0.641,-0.672,-0.229,-0.464,-0.254
0.739,-1.94,-0.469,1.471,1.204,-1.706,0.501,0.531,0.272,-0.339,-0.793,-0.637,-0.669,-0.233,-0.463,-0.258
0.74,-1.947,-0.459,1.488,1.203,-1.718,0.515,0.538,0.283,-0.33,-0.786,-0.633,-0.665,-0.235,-0.45,-0.264
0.741,-1.95,-0.453,1.498,1.202,-1.724,0.522,0.548,0.292,-0.323,-0.782,-0.633,-0.666,-0.239,-0.439,-0.274
0.742,-1.945,-0.44,1.504,1.192,-1.724,0.532,0.557,0.294,-0.32,-0.78,-0.629,-0.664,-0.241,-0.431,-0.28
0.743,-1.952,-0.442,1.51,1.197,-1.732,0.534,0.556,0.297,-0.319,-0.78,-0.633,-0.667,-0.244,-0.435,-0.281
0.744,-1.964,-0.456,1.509,1.21,-1.736,0.526,0.559,0.297,-0.317,-0.777,-0.632,-0.667,-0.245,-0.44,-0.287
0.745,-1.954,-0.445,1.51,1.2,-1.732,0.532,0.569,0.306,-0.302,-0.76,-0.615,-0.658,-0.238,-0.441,-0.292
0.746,-1.942,-0.426,1.516,1.185,-1.729,0.544,0.575,0.32,-0.287,-0.744,-0.598,-0.651,-0.231,-0.442,-0.298
0.747,-1.946,-0.428,1.517,1.187,-1.731,0.544,0.572,0.32,-0.284,-0.734,-0.587,-0.648,-0.223,-0.436,-0.304
0.748,-1.94,-0.426,1.514,1.183,-1.727,0.543,0.583,0.339,-0.265,-0.719,-0.576,-0.645,-0.217,-0.444,-0.311
0.749,-1.927,-0.424,1.502,1.175,-1.714,0.538,0.601,0.372,-0.233,-0.694,-0.559,-0.642,-0.208,-0.463,-0.325
0.75,-1.909,-0.422,1.486,1.165,-1.697,0.531,0.607,0.399,-0.2,-0.658,-0.531,-0.63,-0.191,-0.471,-0.335
0.751,-1.891,-0.422,1.47,1.157,-1.681,0.523,0.61,0.428,-0.162,-0.616,-0.499,-0.619,-0.171,-0.479,-0.344
0.752,-1.88,-0.43,1.45,1.155,-1.665,0.51,0.609,0.456,-0.123,-0.573,-0.462,-0.609,-0.145,-0.489,-0.357
0.753,-1.859,-0.427,1.431,1.143,-1.645,0.502,0.603,0.481,-0.086,-0.527,-0.421,-0.594,-0.117,-0.499,-0.368
0.754,-1.831,-0.42,1.41,1.125,-1.62,0.495,0.587,0.501,-0.046,-0.474,-0.374,-0.575,-0.083,-0.508,-0.374
0.755,-1.81,-0.429,1.381,1.119,-1.595,0.475,0.576,0.527,-0.006,-0.423,-0.329,-0.557,-0.049,-0.519,-0.384
0.756,-1.786,-0.429,1.357,1.107,-1.571,0.464,0.574,0.572,0.048,-0.367,-0.276,-0.536,-0.015,-0.528,-0.4
0.757,-1.758,-0.421,1.338,1.089,-1.548,0.459,0.582,0.636,0.117,-0.298,-0.217,-0.512,0.022,-0.538,-0.414
0.758,-1.73,-0.413,1.317,1.072,-1.524,0.452,0.6,0.696,0.182,-0.236,-0.165,-0.493,0.052,-0.554,-0.434
0.759,-1.688,-0.405,1.284,1.046,-1.486,0.44,0.609,0.756,0.251,-0.167,-0.103,-0.469,0.092,-0.569,-0.454
0.76,-1.64,-0.397,1.243,1.018,-1.442,0.423,0.591,0.783,0.302,-0.099,-0.035,-0.438,0.137,-0.564,-0.466
0.761,-1.59,-0.385,1.206,0.988,-1.398,0.41,0.559,0.757,0.32,-0.042,0.033,-0.408,0.179,-0.568,-0.47
0.762,-1.551,-0.388,1.163,0.97,-1.357,0.388,0.527,0.716,0.32,0.011,0.102,-0.381,0.227,-0.594,-0.465
0.763,-1.506,-0.387,1.119,0.946,-1.312,0.366,0.491,0.652,0.302,0.06,0.178,-0.347,0.276,-0.602,-0.45
0.764,-1.446,-0.386,1.06,0.916,-1.252,0.337,0.442,0.563,0.26,0.091,0.243,-0.318,0.32,-0.606,-0.423
0.765,-1.403,-0.389,1.014,0.895,-1.208,0.313,0.394,0.48,0.211,0.112,0.297,-0.294,0.357,-0.615,-0.403
0.766,-1.347,-0.37,0.978,0.859,-1.163,0.304,0.342,0.397,0.165,0.141,0.366,-0.26,0.407,-0.614,-0.38
0.767,-1.293,-0.355,0.938,0.824,-1.115,0.291,0.291,0.319,0.12,0.169,0.432,-0.226,0.453,-0.607,-0.357
0.768,-1.246,-0.341,0.906,0.793,-1.076,0.282,0.244,0.24,0.074,0.203,0.508,-0.189,0.5,-0.595,-0.341
0.769,-1.195,-0.332,0.864,0.763,-1.029,0.266,0.201,0.16,0.025,0.233,0.58,-0.155,0.547,-0.596,-0.322
0.77,-1.143,-0.329,0.814,0.736,-0.978,0.242,0.164,0.087,-0.018,0.262,0.645,-0.124,0.589,-0.603,-0.301
0.771,-1.077,-0.323,0.754,0.701,-0.916,0.215,0.099,0.001,-0.056,0.304,0.72,-0.089,0.639,-0.6,-0.272
0.772,-1.015,-0.33,0.685,0.672,-0.85,0.177,0.024,-0.084,-0.098,0.339,0.786,-0.06,0.69,-0.6,-0.237
0.773,-0.947,-0.33,0.617,0.638,-0.781,0.143,-0.065,-0.184,-0.151,0.364,0.858,-0.024,0.744,-0.59,-0.19
0.774,-0.882,-0.325,0.557,0.604,-0.72,0.116,-0.139,-0.268,-0.192,0.4,0.928,0.007,0.793,-0.581,-0.153
0.775,-0.82,-0.332,0.488,0.576,-0.653,0.079,-0.197,-0.332,-0.229,0.423,0.978,0.028,0.832,-0.592,-0.12
0.776,-0.768,-0.341,0.427,0.554,-0.598,0.043,-0.268,-0.419,-0.291,0.41,0.996,0.041,0.854,-0.608,-0.068
0.777,-0.728,-0.344,0.385,0.536,-0.556,0.021,-0.354,-0.527,-0.366,0.389,1,0.049,0.872,-0.599,-0.011
0.778,-0.698,-0.348,0.349,0.523,-0.523,0.001,-0.429,-0.619,-0.436,0.354,0.985,0.052,0.88,-0.585,0.04
0.779,-0.694,-0.376,0.319,0.535,-0.506,-0.028,-0.481,-0.682,-0.495,0.304,0.942,0.042,0.872,-0.588,0.083
0.78,-0.677,-0.388,0.29,0.532,-0.483,-0.049,-0.515,-0.721,-0.538,0.258,0.9,0.037,0.866,-0.592,0.119
0.781,-0.651,-0.391,0.261,0.521,-0.456,-0.065,-0.511,-0.732,-0.572,0.201,0.839,0.022,0.843,-0.613,0.145
0.782,-0.661,-0.422,0.239,0.542,-0.451,-0.092,-0.51,-0.745,-0.609,0.135,0.761,-0.005,0.809,-0.638,0.168
0.783,-0.68,-0.456,0.225,0.568,-0.453,-0.116,-0.497,-0.756,-0.652,0.058,0.679,-0.036,0.773,-0.658,0.186
0.784,-0.705,-0.486,0.218,0.596,-0.461,-0.135,-0.464,-0.758,-0.7,-0.032,0.58,-0.069,0.732,-0.678,0.204
0.785,-0.75,-0.52,0.23,0.635,-0.49,-0.145,-0.424,-0.758,-0.762,-0.15,0.455,-0.117,0.673,-0.702,0.227
0.786,-0.801,-0.554,0.246,0.678,-0.524,-0.154,-0.385,-0.762,-0.827,-0.287,0.308,-0.175,0.601,-0.722,0.246
0.787,-0.865,-0.597,0.269,0.731,-0.567,-0.164,-0.327,-0.75,-0.883,-0.428,0.15,-0.24,0.516,-0.748,0.254
0.788,-0.951,-0.633,0.318,0.792,-0.634,-0.158,-0.248,-0.723,-0.926,-0.565,-0.014,-0.309,0.418,-0.769,0.254
0.789,-1.028,-0.657,0.37,0.843,-0.699,-0.143,-0.194,-0.702,-0.96,-0.678,-0.148,-0.365,0.336,-0.772,0.256
0.79,-1.093,-0.68,0.412,0.886,-0.753,-0.134,-0.132,-0.67,-0.986,-0.782,-0.27,-0.423,0.254,-0.788,0.245
0.791,-1.183,-0.71,0.473,0.946,-0.828,-0.118,-0.051,-0.623,-0.992,-0.87,-0.387,-0.483,0.168,-0.8,0.221
0.792,-1.264,-0.741,0.524,1.002,-0.894,-0.108,0.018,-0.587,-1.004,-0.963,-0.497,-0.536,0.091,-0.816,0.207
0.793,-1.337,-0.765,0.572,1.052,-0.955,-0.097,0.081,-0.561,-1.028,-1.055,-0.61,-0.588,0.015,-0.832,0.198
0.794,-1.401,-0.771,0.629,1.086,-1.015,-0.071,0.135,-0.538,-1.042,-1.125,-0.692,-0.622,-0.045,-0.828,0.184
0.795,-1.466,-0.779,0.688,1.123,-1.077,-0.046,0.172,-0.524,-1.058,-1.185,-0.75,-0.645,-0.088,-0.817,0.176
0.796,-1.546,-0.782,0.764,1.165,-1.155,-0.009,0.208,-0.515,-1.075,-1.238,-0.803,-0.67,-0.134,-0.791,0.167
0.797,-1.605,-0.775,0.83,1.19,-1.218,0.027,0.236,-0.511,-1.093,-1.29,-0.849,-0.69,-0.175,-0.769,0.159
0.798,-1.665,-0.778,0.886,1.222,-1.276,0.054,0.258,-0.501,-1.1,-1.325,-0.884,-0.707,-0.21,-0.755,0.146
0.799,-1.744,-0.771,0.973,1.258,-1.358,0.101,0.285,-0.482,-1.089,-1.335,-0.906,-0.719,-0.247,-0.722,0.12
0.8,-1.81,-0.758,1.052,1.284,-1.431,0.147,0.303,-0.468,-1.075,-1.337,-0.924,-0.734,-0.278,-0.681,0.097
0.801,-1.863,-0.749,1.114,1.306,-1.488,0.183,0.315,-0.462,-1.067,-1.342,-0.941,-0.75,-0.306,-0.649,0.076
0.802,-1.927,-0.743,1.184,1.335,-1.556,0.221,0.322,-0.45,-1.05,-1.339,-0.955,-0.765,-0.34,-0.614,0.049
0.803,-1.964,-0.727,1.237,1.345,-1.601,0.255,0.329,-0.431,-1.026,-1.327,-0.959,-0.777,-0.366,-0.578,0.021
0.804,-1.97,-0.699,1.27,1.335,-1.62,0.285,0.335,-0.415,-1.007,-1.317,-0.959,-0.784,-0.389,-0.557,0.002
0.805,-1.992,-0.678,1.313,1.335,-1.652,0.317,0.344,-0.397,-0.985,-1.301,-0.955,-0.786,-0.406,-0.542,-0.013
0.806,-2.029,-0.669,1.359,1.349,-1.694,0.344,0.348,-0.376,-0.957,-1.276,-0.943,-0.788,-0.419,-0.514,-0.032
0.807,-2.032,-0.643,1.389,1.337,-1.71,0.373,0.342,-0.348,-0.919,-1.243,-0.921,-0.782,-0.42,-0.487,-0.05
0.808,-2.022,-0.611,1.41,1.316,-1.716,0.4,0.343,-0.311,-0.877,-1.205,-0.898,-0.775,-0.416,-0.469,-0.064
0.809,-2.015,-0.586,1.429,1.3,-1.722,0.421,0.344,-0.275,-0.835,-1.167,-0.876,-0.77,-0.415,-0.453,-0.085
0.81,-2.015,-0.559,1.456,1.288,-1.736,0.448,0.341,-0.236,-0.79,-1.129,-0.851,-0.763,-0.413,-0.431,-0.107
0.811,-2.028,-0.547,1.482,1.288,-1.754,0.468,0.337,-0.197,-0.747,-1.093,-0.831,-0.759,-0.413,-0.42,-0.128
0.812,-2.025,-0.527,1.497,1.276,-1.761,0.485,0.333,-0.161,-0.704,-1.056,-0.808,-0.751,-0.4,-0.412,-0.143
0.813,-2.03,-0.517,1.512,1.274,-1.771,0.497,0.334,-0.126,-0.668,-1.026,-0.789,-0.745,-0.389,-0.4,-0.154
0.814,-2.018,-0.51,1.508,1.264,-1.763,0.498,0.334,-0.087,-0.634,-0.999,-0.772,-0.737,-0.374,-0.398,-0.163
0.815,-1.996,-0.499,1.497,1.247,-1.746,0.499,0.339,-0.05,-0.598,-0.968,-0.751,-0.726,-0.354,-0.4,-0.172
0.816,-1.982,-0.491,1.49,1.236,-1.736,0.499,0.353,-0.015,-0.567,-0.942,-0.74,-0.72,-0.341,-0.403,-0.179
0.817,-1.958,-0.474,1.484,1.216,-1.721,0.505,0.364,0.025,-0.535,-0.922,-0.729,-0.711,-0.33,-0.408,-0.183
0.818,-1.937,-0.457,1.48,1.197,-1.708,0.511,0.377,0.059,-0.505,-0.898,-0.713,-0.704,-0.315,-0.408,-0.188
0.819,-1.929,-0.458,1.471,1.193,-1.7,0.506,0.383,0.089,-0.478,-0.877,-0.698,-0.699,-0.299,-0.411,-0.194
0.82,-1.913,-0.458,1.456,1.186,-1.685,0.498,0.388,0.113,-0.458,-0.863,-0.689,-0.693,-0.288,-0.415,-0.195
0.821,-1.893,-0.454,1.44,1.174,-1.667,0.492,0.398,0.138,-0.436,-0.845,-0.675,-0.685,-0.274,-0.426,-0.194
0.822,-1.889,-0.463,1.427,1.176,-1.658,0.482,0.407,0.161,-0.417,-0.83,-0.662,-0.678,-0.267,-0.44,-0.194
0.823,-1.881,-0.454,1.427,1.167,-1.653,0.486,0.412,0.176,-0.404,-0.82,-0.658,-0.675,-0.261,-0.441,-0.195
0.824,-1.88,-0.453,1.427,1.167,-1.654,0.487,0.417,0.194,-0.393,-0.815,-0.653,-0.674,-0.251,-0.448,-0.195
0.825,-1.883,-0.463,1.421,1.173,-1.653,0.479,0.428,0.205,-0.384,-0.81,-0.652,-0.674,-0.248,-0.458,-0.194
0.826,-1.883,-0.465,1.419,1.173,-1.651,0.477,0.438,0.215,-0.378,-0.807,-0.649,-0.674,-0.246,-0.459,-0.197
0.827,-1.877,-0.466,1.411,1.171,-1.643,0.472,0.445,0.222,-0.374,-0.807,-0.651,-0.674,-0.243,-0.467,-0.195
0.828,-1.867,-0.465,1.401,1.165,-1.634,0.468,0.45,0.229,-0.37,-0.806,-0.652,-0.675,-0.239,-0.475,-0.198
0.829,-1.871,-0.471,1.399,1.171,-1.635,0.464,0.458,0.237,-0.366,-0.803,-0.649,-0.675,-0.236,-0.476,-0.2
0.83,-1.869,-0.469,1.401,1.169,-1.635,0.466,0.465,0.242,-0.358,-0.797,-0.645,-0.674,-0.233,-0.482,-0.202
0.831,-1.871,-0.472,1.399,1.171,-1.635,0.463,0.47,0.249,-0.348,-0.791,-0.639,-0.672,-0.227,-0.492,-0.209
0.832,-1.877,-0.481,1.395,1.179,-1.636,0.457,0.473,0.256,-0.345,-0.79,-0.639,-0.671,-0.221,-0.493,-0.209
0.833,-1.863,-0.474,1.389,1.169,-1.625,0.458,0.48,0.264,-0.34,-0.784,-0.632,-0.664,-0.212,-0.493,-0.21
0.834,-1.861,-0.483,1.377,1.172,-1.619,0.447,0.488,0.275,-0.331,-0.777,-0.625,-0.659,-0.212,-0.503,-0.217
0.835,-1.87,-0.497,1.373,1.183,-1.621,0.438,0.496,0.283,-0.322,-0.772,-0.623,-0.657,-0.217,-0.513,-0.226
0.836,-1.871,-0.494,1.376,1.183,-1.623,0.441,0.503,0.292,-0.313,-0.763,-0.616,-0.654,-0.214,-0.511,-0.233
0.837,-1.865,-0.49,1.375,1.178,-1.62,0.442,0.504,0.298,-0.309,-0.759,-0.611,-0.653,-0.211,-0.509,-0.234
0.838,-1.861,-0.49,1.37,1.175,-1.615,0.44,0.504,0.298,-0.31,-0.761,-0.613,-0.653,-0.209,-0.506,-0.234
0.839,-1.875,-0.5,1.374,1.187,-1.624,0.437,0.493,0.295,-0.311,-0.76,-0.612,-0.653,-0.208,-0.508,-0.232
0.84,-1.883,-0.502,1.381,1.193,-1.633,0.439,0.496,0.301,-0.305,-0.752,-0.607,-0.651,-0.208,-0.513,-0.235
0.841,-1.877,-0.498,1.379,1.188,-1.628,0.441,0.501,0.306,-0.303,-0.753,-0.613,-0.656,-0.209,-0.515,-0.233
0.842,-1.873,-0.501,1.371,1.188,-1.622,0.435,0.496,0.306,-0.303,-0.756,-0.618,-0.658,-0.206,-0.514,-0.23
0.843,-1.879,-0.508,1.37,1.193,-1.624,0.431,0.497,0.306,-0.303,-0.757,-0.618,-0.659,-0.202,-0.514,-0.231
0.844,-1.886,-0.512,1.373,1.2,-1.63,0.43,0.494,0.303,-0.307,-0.761,-0.623,-0.664,-0.202,-0.516,-0.227
0.845,-1.895,-0.517,1.377,1.206,-1.636,0.43,0.492,0.301,-0.307,-0.762,-0.625,-0.666,-0.2,-0.513,-0.227
0.846,-1.903,-0.521,1.381,1.212,-1.642,0.43,0.494,0.303,-0.306,-0.761,-0.628,-0.669,-0.199,-0.515,-0.23
0.847,-1.901,-0.52,1.381,1.211,-1.641,0.43,0.497,0.304,-0.303,-0.76,-0.627,-0.67,-0.197,-0.516,-0.23
0.848,-1.904,-0.521,1.383,1.212,-1.643,0.43,0.495,0.308,-0.301,-0.759,-0.628,-0.671,-0.197,-0.512,-0.229
0.849,-1.905,-0.52,1.385,1.212,-1.645,0.432,0.495,0.307,-0.3,-0.757,-0.625,-0.669,-0.197,-0.51,-0.23
0.85,-1.897,-0.51,1.386,1.204,-1.641,0.438,0.497,0.308,-0.297,-0.753,-0.62,-0.664,-0.195,-0.5,-0.23
0.851,-1.887,-0.5,1.386,1.194,-1.637,0.443,0.496,0.31,-0.293,-0.749,-0.621,-0.662,-0.194,-0.496,-0.23
0.852,-1.874,-0.486,1.388,1.18,-1.631,0.451,0.5,0.316,-0.287,-0.744,-0.616,-0.658,-0.192,-0.499,-0.23
0.853,-1.874,-0.481,1.393,1.177,-1.633,0.456,0.496,0.317,-0.286,-0.742,-0.613,-0.658,-0.194,-0.499,-0.23
0.854,-1.863,-0.473,1.389,1.167,-1.625,0.458,0.497,0.318,-0.283,-0.738,-0.608,-0.654,-0.193,-0.5,-0.231
0.855,-1.845,-0.46,1.385,1.152,-1.615,0.463,0.502,0.323,-0.28,-0.735,-0.603,-0.648,-0.193,-0.5,-0.231
0.856,-1.839,-0.449,1.39,1.144,-1.615,0.47,0.506,0.327,-0.275,-0.73,-0.597,-0.644,-0.192,-0.499,-0.231
0.857,-1.841,-0.444,1.399,1.143,-1.62,0.477,0.509,0.332,-0.27,-0.727,-0.592,-0.638,-0.189,-0.502,-0.229
0.858,-1.845,-0.449,1.396,1.147,-1.621,0.473,0.507,0.329,-0.274,-0.732,-0.599,-0.644,-0.195,-0.502,-0.228
0.859,-1.835,-0.45,1.385,1.143,-1.61,0.468,0.509,0.328,-0.273,-0.731,-0.6,-0.647,-0.197,-0.5,-0.232
0.86,-1.842,-0.454,1.389,1.147,-1.615,0.468,0.512,0.331,-0.273,-0.729,-0.599,-0.646,-0.196,-0.503,-0.234
0.861,-1.856,-0.458,1.398,1.157,-1.627,0.47,0.521,0.336,-0.269,-0.727,-0.598,-0.645,-0.2,-0.508,-0.233
0.862,-1.852,-0.455,1.397,1.153,-1.625,0.471,0.522,0.338,-0.267,-0.725,-0.597,-0.644,-0.196,-0.506,-0.231
0.863,-1.847,-0.454,1.393,1.151,-1.62,0.469,0.516,0.335,-0.272,-0.728,-0.599,-0.646,-0.194,-0.502,-0.228
0.864,-1.85,-0.461,1.389,1.155,-1.619,0.464,0.512,0.334,-0.271,-0.73,-0.601,-0.652,-0.196,-0.503,-0.23
0.865,-1.849,-0.463,1.386,1.155,-1.617,0.462,0.513,0.333,-0.272,-0.73,-0.6,-0.648,-0.19,-0.503,-0.23
0.866,-1.851,-0.461,1.389,1.155,-1.62,0.465,0.514,0.335,-0.271,-0.731,-0.601,-0.647,-0.191,-0.501,-0.231
0.867,-1.849,-0.455,1.393,1.152,-1.621,0.469,0.509,0.336,-0.272,-0.731,-0.603,-0.655,-0.195,-0.503,-0.234
0.868,-1.842,-0.451,1.391,1.146,-1.617,0.47,0.511,0.333,-0.273,-0.729,-0.602,-0.654,-0.196,-0.502,-0.235
0.869,-1.838,-0.45,1.388,1.144,-1.613,0.469,0.511,0.334,-0.268,-0.727,-0.603,-0.654,-0.194,-0.495,-0.234
0.87,-1.844,-0.455,1.389,1.149,-1.617,0.467,0.508,0.334,-0.267,-0.726,-0.602,-0.653,-0.188,-0.5,-0.232
0.871,-1.848,-0.458,1.391,1.153,-1.619,0.467,0.512,0.337,-0.265,-0.726,-0.604,-0.651,-0.185,-0.502,-0.231
0.872,-1.837,-0.45,1.388,1.143,-1.613,0.469,0.512,0.342,-0.259,-0.724,-0.601,-0.648,-0.177,-0.5,-0.226
0.873,-1.841,-0.454,1.387,1.147,-1.614,0.467,0.505,0.337,-0.263,-0.728,-0.603,-0.647,-0.175,-0.505,-0.224
0.874,-1.849,-0.466,1.384,1.157,-1.617,0.459,0.507,0.337,-0.265,-0.728,-0.603,-0.65,-0.177,-0.508,-0.226
0.875,-1.865,-0.479,1.385,1.173,-1.625,0.453,0.51,0.339,-0.263,-0.725,-0.599,-0.652,-0.178,-0.515,-0.231
0.876,-1.871,-0.486,1.384,1.179,-1.627,0.449,0.504,0.332,-0.268,-0.729,-0.603,-0.652,-0.179,-0.513,-0.233
0.877,-1.865,-0.48,1.385,1.173,-1.625,0.453,0.507,0.335,-0.265,-0.724,-0.599,-0.651,-0.179,-0.507,-0.234
0.878,-1.863,-0.47,1.393,1.167,-1.628,0.462,0.509,0.338,-0.264,-0.722,-0.598,-0.652,-0.182,-0.506,-0.234
0.879,-1.857,-0.469,1.388,1.163,-1.623,0.46,0.505,0.336,-0.267,-0.726,-0.601,-0.652,-0.181,-0.508,-0.233
0.88,-1.859,-0.47,1.389,1.165,-1.623,0.459,0.507,0.336,-0.264,-0.724,-0.599,-0.65,-0.185,-0.505,-0.233
0.881,-1.863,-0.471,1.392,1.167,-1.627,0.461,0.505,0.334,-0.265,-0.723,-0.596,-0.65,-0.189,-0.503,-0.235
0.882,-1.869,-0.475,1.394,1.172,-1.631,0.46,0.503,0.334,-0.265,-0.721,-0.591,-0.651,-0.192,-0.498,-0.241
0.883,-1.859,-0.467,1.391,1.163,-1.625,0.463,0.504,0.335,-0.264,-0.721,-0.598,-0.653,-0.195,-0.498,-0.242
0.884,-1.855,-0.466,1.389,1.161,-1.622,0.462,0.503,0.332,-0.267,-0.726,-0.606,-0.655,-0.194,-0.504,-0.24
0.885,-1.863,-0.469,1.394,1.165,-1.629,0.463,0.499,0.332,-0.267,-0.724,-0.6,-0.654,-0.194,-0.497,-0.243
0.886,-1.855,-0.464,1.391,1.159,-1.623,0.464,0.497,0.333,-0.264,-0.721,-0.594,-0.651,-0.191,-0.494,-0.242
0.887,-1.857,-0.462,1.395,1.159,-1.627,0.467,0.5,0.336,-0.261,-0.719,-0.593,-0.652,-0.191,-0.495,-0.239
0.888,-1.869,-0.467,1.402,1.168,-1.635,0.468,0.501,0.337,-0.26,-0.717,-0.593,-0.654,-0.194,-0.498,-0.241
0.889,-1.875,-0.471,1.403,1.173,-1.639,0.466,0.503,0.337,-0.26,-0.719,-0.595,-0.653,-0.198,-0.497,-0.244
0.89,-1.867,-0.473,1.393,1.17,-1.63,0.46,0.504,0.338,-0.26,-0.721,-0.598,-0.654,-0.199,-0.497,-0.247
0.891,-1.863,-0.476,1.387,1.17,-1.625,0.455,0.504,0.338,-0.261,-0.72,-0.596,-0.653,-0.198,-0.5,-0.246
0.892,-1.869,-0.479,1.389,1.174,-1.629,0.455,0.507,0.342,-0.255,-0.715,-0.588,-0.65,-0.199,-0.502,-0.247
0.893,-1.863,-0.487,1.375,1.175,-1.619,0.445,0.507,0.342,-0.256,-0.716,-0.594,-0.652,-0.202,-0.508,-0.245
0.894,-1.867,-0.491,1.375,1.179,-1.621,0.442,0.507,0.344,-0.256,-0.717,-0.599,-0.652,-0.205,-0.512,-0.243
0.895,-1.873,-0.49,1.383,1.181,-1.628,0.447,0.508,0.345,-0.254,-0.713,-0.595,-0.652,-0.204,-0.51,-0.24
0.896,-1.869,-0.486,1.383,1.177,-1.627,0.449,0.505,0.34,-0.256,-0.714,-0.596,-0.654,-0.203,-0.507,-0.236
0.897,-1.865,-0.482,1.383,1.174,-1.624,0.45,0.501,0.338,-0.258,-0.715,-0.596,-0.654,-0.201,-0.506,-0.233
0.898,-1.863,-0.479,1.384,1.171,-1.623,0.453,0.502,0.337,-0.258,-0.713,-0.597,-0.652,-0.199,-0.508,-0.233
0.899,-1.864,-0.478,1.385,1.171,-1.625,0.454,0.505,0.337,-0.257,-0.713,-0.596,-0.655,-0.201,-0.513,-0.236
0.9,-1.873,-0.488,1.384,1.181,-1.628,0.448,0.502,0.332,-0.262,-0.718,-0.598,-0.657,-0.2,-0.511,-0.234
0.901,-1.865,-0.486,1.379,1.175,-1.622,0.446,0.501,0.334,-0.26,-0.715,-0.595,-0.649,-0.193,-0.511,-0.236
0.902,-1.859,-0.479,1.38,1.169,-1.619,0.451,0.508,0.342,-0.253,-0.709,-0.59,-0.649,-0.194,-0.514,-0.241
0.903,-1.871,-0.483,1.387,1.177,-1.629,0.452,0.508,0.342,-0.254,-0.71,-0.593,-0.651,-0.197,-0.513,-0.239
0.904,-1.867,-0.485,1.381,1.175,-1.624,0.449,0.505,0.34,-0.255,-0.711,-0.592,-0.647,-0.191,-0.513,-0.235
0.905,-1.864,-0.485,1.379,1.175,-1.621,0.447,0.508,0.343,-0.251,-0.709,-0.593,-0.645,-0.185,-0.513,-0.235
0.906,-1.858,-0.484,1.374,1.171,-1.616,0.445,0.51,0.344,-0.247,-0.709,-0.592,-0.645,-0.186,-0.514,-0.241
0.907,-1.855,-0.486,1.369,1.171,-1.612,0.442,0.505,0.341,-0.251,-0.713,-0.596,-0.646,-0.187,-0.507,-0.24
0.908,-1.852,-0.484,1.368,1.168,-1.61,0.442,0.508,0.342,-0.25,-0.708,-0.596,-0.647,-0.186,-0.504,-0.237
0.909,-1.861,-0.486,1.375,1.174,-1.619,0.445,0.509,0.348,-0.244,-0.706,-0.595,-0.647,-0.189,-0.51,-0.238
0.91,-1.871,-0.493,1.377,1.182,-1.625,0.442,0.504,0.342,-0.249,-0.713,-0.601,-0.649,-0.19,-0.51,-0.237
0.911,-1.845,-0.474,1.371,1.16,-1.609,0.449,0.509,0.342,-0.25,-0.709,-0.6,-0.647,-0.188,-0.509,-0.237
0.912,-1.84,-0.466,1.374,1.153,-1.607,0.454,0.507,0.345,-0.248,-0.711,-0.6,-0.645,-0.185,-0.508,-0.234
0.913,-1.85,-0.468,1.383,1.159,-1.616,0.458,0.501,0.344,-0.249,-0.711,-0.602,-0.645,-0.18,-0.505,-0.232
0.914,-1.863,-0.47,1.393,1.166,-1.627,0.462,0.504,0.344,-0.251,-0.711,-0.603,-0.646,-0.182,-0.51,-0.23
0.915,-1.873,-0.479,1.393,1.175,-1.633,0.458,0.501,0.343,-0.255,-0.714,-0.606,-0.65,-0.18,-0.514,-0.231
0.916,-1.869,-0.479,1.389,1.174,-1.629,0.455,0.497,0.342,-0.254,-0.713,-0.604,-0.65,-0.172,-0.507,-0.232
0.917,-1.871,-0.488,1.383,1.179,-1.627,0.447,0.499,0.339,-0.255,-0.715,-0.602,-0.648,-0.167,-0.512,-0.227
0.918,-1.873,-0.501,1.372,1.188,-1.623,0.435,0.495,0.338,-0.257,-0.717,-0.603,-0.648,-0.163,-0.515,-0.225
0.919,-1.871,-0.498,1.373,1.185,-1.622,0.438,0.493,0.338,-0.256,-0.716,-0.6,-0.649,-0.157,-0.51,-0.221
0.92,-1.871,-0.488,1.383,1.179,-1.627,0.447,0.496,0.341,-0.255,-0.712,-0.596,-0.647,-0.153,-0.508,-0.22
0.921,-1.869,-0.488,1.381,1.179,-1.625,0.447,0.496,0.342,-0.254,-0.712,-0.598,-0.648,-0.153,-0.499,-0.223
0.922,-1.859,-0.483,1.375,1.171,-1.617,0.446,0.494,0.341,-0.253,-0.711,-0.594,-0.647,-0.152,-0.49,-0.226
0.923,-1.856,-0.479,1.377,1.167,-1.617,0.449,0.49,0.34,-0.251,-0.708,-0.592,-0.645,-0.157,-0.49,-0.227
0.924,-1.849,-0.469,1.38,1.159,-1.615,0.455,0.49,0.342,-0.246,-0.703,-0.587,-0.643,-0.162,-0.49,-0.226
0.925,-1.843,-0.464,1.379,1.153,-1.611,0.458,0.491,0.345,-0.243,-0.699,-0.581,-0.642,-0.159,-0.499,-0.231
0.926,-1.849,-0.466,1.383,1.157,-1.615,0.459,0.494,0.347,-0.24,-0.696,-0.579,-0.641,-0.161,-0.512,-0.234
0.927,-1.851,-0.461,1.389,1.155,-1.62,0.465,0.501,0.352,-0.237,-0.692,-0.575,-0.639,-0.167,-0.508,-0.235
0.928,-1.851,-0.467,1.384,1.159,-1.617,0.459,0.496,0.352,-0.237,-0.692,-0.577,-0.642,-0.172,-0.507,-0.237
0.929,-1.842,-0.46,1.383,1.151,-1.612,0.462,0.496,0.351,-0.235,-0.691,-0.574,-0.637,-0.172,-0.507,-0.237
0.93,-1.843,-0.456,1.387,1.149,-1.615,0.466,0.5,0.35,-0.234,-0.689,-0.572,-0.634,-0.171,-0.505,-0.238
0.931,-1.847,-0.463,1.385,1.155,-1.615,0.461,0.5,0.349,-0.237,-0.691,-0.577,-0.64,-0.177,-0.508,-0.239
0.932,-1.837,-0.457,1.381,1.147,-1.609,0.463,0.503,0.351,-0.235,-0.692,-0.576,-0.641,-0.183,-0.505,-0.241
0.933,-1.833,-0.455,1.379,1.144,-1.607,0.462,0.506,0.353,-0.233,-0.691,-0.573,-0.639,-0.185,-0.503,-0.244
0.934,-1.836,-0.454,1.382,1.145,-1.609,0.464,0.508,0.355,-0.231,-0.688,-0.567,-0.637,-0.189,-0.502,-0.244
0.935,-1.839,-0.454,1.385,1.147,-1.613,0.466,0.512,0.36,-0.227,-0.685,-0.566,-0.637,-0.19,-0.507,-0.245
0.936,-1.829,-0.45,1.379,1.139,-1.604,0.465,0.509,0.362,-0.225,-0.684,-0.569,-0.638,-0.188,-0.514,-0.249
0.937,-1.823,-0.449,1.373,1.135,-1.598,0.463,0.505,0.354,-0.229,-0.684,-0.571,-0.638,-0.185,-0.51,-0.243
0.938,-1.829,-0.454,1.377,1.141,-1.603,0.462,0.507,0.353,-0.23,-0.687,-0.573,-0.64,-0.184,-0.508,-0.242
0.939,-1.835,-0.456,1.379,1.145,-1.607,0.461,0.503,0.354,-0.229,-0.686,-0.574,-0.64,-0.185,-0.5,-0.245
0.94,-1.837,-0.46,1.378,1.148,-1.607,0.459,0.5,0.354,-0.232,-0.688,-0.577,-0.644,-0.185,-0.501,-0.238
0.941,-1.832,-0.455,1.377,1.143,-1.605,0.461,0.501,0.357,-0.226,-0.682,-0.573,-0.642,-0.177,-0.506,-0.237
0.942,-1.832,-0.454,1.379,1.143,-1.605,0.463,0.502,0.36,-0.223,-0.68,-0.571,-0.638,-0.171,-0.506,-0.238
0.943,-1.841,-0.462,1.379,1.151,-1.61,0.459,0.508,0.359,-0.228,-0.688,-0.579,-0.641,-0.173,-0.509,-0.237
0.944,-1.845,-0.469,1.376,1.157,-1.611,0.454,0.506,0.354,-0.231,-0.692,-0.582,-0.643,-0.169,-0.506,-0.237
0.945,-1.856,-0.479,1.377,1.167,-1.617,0.449,0.494,0.348,-0.235,-0.698,-0.586,-0.65,-0.167,-0.509,-0.234
0.946,-1.867,-0.488,1.379,1.178,-1.623,0.445,0.492,0.347,-0.237,-0.7,-0.59,-0.655,-0.166,-0.506,-0.233
0.947,-1.879,-0.501,1.379,1.19,-1.629,0.439,0.492,0.344,-0.242,-0.701,-0.592,-0.656,-0.164,-0.504,-0.232
0.948,-1.879,-0.501,1.378,1.19,-1.629,0.438,0.485,0.34,-0.245,-0.702,-0.593,-0.657,-0.165,-0.5,-0.23
0.949,-1.872,-0.493,1.379,1.183,-1.625,0.443,0.487,0.339,-0.245,-0.7,-0.587,-0.652,-0.159,-0.498,-0.227
0.95,-1.873,-0.489,1.383,1.181,-1.629,0.447,0.492,0.342,-0.24,-0.699,-0.583,-0.648,-0.165,-0.502,-0.231
0.951,-1.863,-0.483,1.379,1.173,-1.621,0.448,0.491,0.354,-0.229,-0.69,-0.58,-0.643,-0.172,-0.504,-0.235
0.952,-1.855,-0.484,1.37,1.169,-1.612,0.443,0.494,0.356,-0.226,-0.686,-0.577,-0.64,-0.172,-0.51,-0.237
0.953,-1.845,-0.472,1.373,1.159,-1.609,0.45,0.499,0.36,-0.22,-0.68,-0.569,-0.631,-0.172,-0.503,-0.236
0.954,-1.823,-0.447,1.376,1.135,-1.599,0.465,0.504,0.366,-0.213,-0.672,-0.563,-0.626,-0.174,-0.502,-0.234
0.955,-1.798,-0.429,1.368,1.113,-1.583,0.469,0.509,0.368,-0.211,-0.671,-0.56,-0.624,-0.173,-0.503,-0.234
0.956,-1.79,-0.426,1.363,1.108,-1.577,0.469,0.509,0.372,-0.209,-0.668,-0.555,-0.619,-0.169,-0.501,-0.236
0.957,-1.806,-0.439,1.367,1.123,-1.587,0.465,0.51,0.37,-0.213,-0.671,-0.561,-0.627,-0.172,-0.511,-0.24
0.958,-1.815,-0.448,1.366,1.131,-1.591,0.459,0.51,0.369,-0.214,-0.675,-0.562,-0.627,-0.169,-0.507,-0.241
0.959,-1.817,-0.457,1.361,1.137,-1.589,0.452,0.506,0.368,-0.213,-0.675,-0.562,-0.626,-0.165,-0.506,-0.242
0.96,-1.816,-0.455,1.361,1.135,-1.589,0.453,0.508,0.366,-0.213,-0.675,-0.566,-0.629,-0.166,-0.519,-0.244
0.961,-1.815,-0.454,1.361,1.134,-1.587,0.454,0.506,0.365,-0.213,-0.675,-0.569,-0.631,-0.166,-0.516,-0.244
0.962,-1.833,-0.466,1.367,1.149,-1.6,0.451,0.499,0.36,-0.217,-0.679,-0.573,-0.633,-0.169,-0.504,-0.245
0.963,-1.829,-0.466,1.364,1.147,-1.597,0.449,0.5,0.362,-0.215,-0.679,-0.574,-0.63,-0.168,-0.501,-0.245
0.964,-1.822,-0.461,1.361,1.141,-1.591,0.45,0.503,0.368,-0.211,-0.675,-0.571,-0.629,-0.167,-0.505,-0.244
0.965,-1.825,-0.462,1.363,1.143,-1.594,0.451,0.502,0.37,-0.209,-0.673,-0.567,-0.626,-0.165,-0.509,-0.244
0.966,-1.835,-0.472,1.363,1.153,-1.599,0.445,0.498,0.366,-0.21,-0.677,-0.575,-0.632,-0.167,-0.503,-0.241
0.967,-1.842,-0.474,1.367,1.159,-1.605,0.446,0.5,0.367,-0.208,-0.675,-0.577,-0.635,-0.168,-0.506,-0.238
0.968,-1.819,-0.465,1.355,1.142,-1.587,0.445,0.498,0.368,-0.208,-0.674,-0.575,-0.632,-0.164,-0.512,-0.233
0.969,-1.82,-0.466,1.355,1.143,-1.587,0.445,0.493,0.362,-0.211,-0.676,-0.576,-0.637,-0.169,-0.509,-0.234
0.97,-1.821,-0.461,1.361,1.141,-1.591,0.45,0.495,0.367,-0.206,-0.668,-0.565,-0.633,-0.164,-0.511,-0.235
0.971,-1.825,-0.459,1.365,1.141,-1.595,0.454,0.493,0.37,-0.205,-0.667,-0.562,-0.636,-0.164,-0.506,-0.231
0.972,-1.834,-0.461,1.373,1.147,-1.603,0.457,0.496,0.371,-0.204,-0.668,-0.566,-0.639,-0.169,-0.502,-0.233
0.973,-1.823,-0.458,1.366,1.141,-1.595,0.454,0.5,0.377,-0.198,-0.662,-0.564,-0.636,-0.164,-0.508,-0.235
0.974,-1.835,-0.469,1.366,1.153,-1.601,0.449,0.497,0.375,-0.198,-0.663,-0.565,-0.641,-0.167,-0.513,-0.235
0.975,-1.831,-0.471,1.361,1.151,-1.596,0.445,0.497,0.372,-0.201,-0.664,-0.566,-0.64,-0.166,-0.506,-0.236
0.976,-1.815,-0.465,1.35,1.14,-1.583,0.443,0.497,0.371,-0.201,-0.666,-0.567,-0.642,-0.165,-0.5,-0.238
0.977,-1.828,-0.469,1.359,1.149,-1.593,0.445,0.497,0.374,-0.199,-0.664,-0.564,-0.639,-0.163,-0.51,-0.239
0.978,-1.838,-0.471,1.367,1.155,-1.603,0.448,0.5,0.378,-0.194,-0.659,-0.558,-0.635,-0.163,-0.512,-0.241
0.979,-1.831,-0.467,1.365,1.149,-1.597,0.449,0.501,0.381,-0.191,-0.656,-0.554,-0.63,-0.162,-0.511,-0.242
0.98,-1.835,-0.471,1.365,1.153,-1.6,0.447,0.498,0.381,-0.19,-0.653,-0.549,-0.628,-0.159,-0.513,-0.242
0.981,-1.837,-0.479,1.357,1.157,-1.597,0.44,0.49,0.377,-0.193,-0.656,-0.55,-0.63,-0.157,-0.516,-0.243
0.982,-1.839,-0.485,1.354,1.163,-1.597,0.434,0.489,0.378,-0.19,-0.655,-0.545,-0.625,-0.152,-0.518,-0.242
0.983,-1.851,-0.493,1.358,1.171,-1.605,0.432,0.491,0.376,-0.188,-0.653,-0.543,-0.626,-0.151,-0.514,-0.241
0.984,-1.849,-0.493,1.357,1.171,-1.603,0.432,0.487,0.378,-0.19,-0.655,-0.549,-0.629,-0.148,-0.512,-0.24
0.985,-1.851,-0.496,1.355,1.174,-1.603,0.429,0.485,0.374,-0.192,-0.659,-0.551,-0.63,-0.146,-0.513,-0.24
0.986,-1.855,-0.5,1.355,1.177,-1.605,0.427,0.486,0.371,-0.193,-0.658,-0.549,-0.627,-0.145,-0.507,-0.24
0.987,-1.854,-0.494,1.36,1.175,-1.607,0.432,0.487,0.375,-0.19,-0.655,-0.549,-0.625,-0.148,-0.505,-0.241
0.988,-1.845,-0.49,1.355,1.168,-1.6,0.432,0.487,0.374,-0.19,-0.657,-0.55,-0.628,-0.15,-0.51,-0.243
0.989,-1.839,-0.485,1.354,1.162,-1.597,0.434,0.491,0.377,-0.187,-0.656,-0.549,-0.626,-0.152,-0.51,-0.246
0.99,-1.841,-0.483,1.357,1.161,-1.599,0.437,0.492,0.379,-0.183,-0.652,-0.546,-0.625,-0.156,-0.515,-0.249
0.991,-1.832,-0.478,1.353,1.155,-1.593,0.438,0.497,0.386,-0.177,-0.647,-0.543,-0.622,-0.154,-0.519,-0.249
0.992,-1.815,-0.464,1.351,1.139,-1.583,0.444,0.5,0.394,-0.171,-0.641,-0.543,-0.619,-0.154,-0.518,-0.25
0.993,-1.817,-0.464,1.353,1.141,-1.585,0.445,0.499,0.397,-0.168,-0.639,-0.541,-0.62,-0.157,-0.515,-0.253
0.994,-1.81,-0.46,1.351,1.135,-1.581,0.445,0.5,0.397,-0.169,-0.64,-0.54,-0.619,-0.159,-0.512,-0.253
0.995,-1.806,-0.456,1.35,1.131,-1.578,0.448,0.499,0.395,-0.17,-0.642,-0.544,-0.622,-0.163,-0.518,-0.251
0.996,-1.812,-0.458,1.355,1.135,-1.584,0.449,0.5,0.397,-0.169,-0.642,-0.543,-0.625,-0.164,-0.52,-0.25
0.997,-1.812,-0.458,1.354,1.135,-1.583,0.449,0.498,0.399,-0.167,-0.639,-0.543,-0.626,-0.165,-0.516,-0.253
0.998,-1.811,-0.457,1.354,1.134,-1.583,0.449,0.499,0.401,-0.164,-0.636,-0.541,-0.626,-0.162,-0.517,-0.254
0.999,-1.804,-0.461,1.343,1.132,-1.573,0.441,0.496,0.399,-0.166,-0.64,-0.545,-0.628,-0.157,-0.518,-0.253
1,-1.808,-0.464,1.345,1.136,-1.577,0.44,0.492,0.397,-0.167,-0.642,-0.548,-0.63,-0.155,-0.514,-0.253
1.001,-1.819,-0.464,1.355,1.141,-1.587,0.446,0.496,0.399,-0.164,-0.636,-0.543,-0.628,-0.15,-0.523,-0.248
1.002,-1.817,-0.467,1.349,1.142,-1.583,0.441,0.499,0.402,-0.162,-0.632,-0.54,-0.626,-0.142,-0.526,-0.248
1.003,-1.81,-0.466,1.345,1.138,-1.577,0.44,0.502,0.406,-0.158,-0.631,-0.538,-0.624,-0.137,-0.524,-0.251
1.004,-1.808,-0.465,1.344,1.137,-1.576,0.44,0.504,0.41,-0.153,-0.628,-0.542,-0.623,-0.138,-0.527,-0.249
1.005,-1.805,-0.464,1.341,1.134,-1.573,0.439,0.503,0.41,-0.152,-0.626,-0.539,-0.622,-0.134,-0.526,-0.252
1.006,-1.818,-0.475,1.343,1.147,-1.581,0.433,0.503,0.408,-0.155,-0.63,-0.539,-0.623,-0.133,-0.526,-0.251
1.007,-1.822,-0.477,1.345,1.149,-1.583,0.433,0.507,0.408,-0.152,-0.628,-0.539,-0.622,-0.136,-0.524,-0.249
1.008,-1.817,-0.472,1.345,1.145,-1.581,0.436,0.506,0.411,-0.148,-0.623,-0.533,-0.618,-0.132,-0.521,-0.25
1.009,-1.82,-0.478,1.341,1.149,-1.581,0.431,0.501,0.412,-0.149,-0.624,-0.534,-0.62,-0.127,-0.525,-0.247
1.01,-1.806,-0.472,1.334,1.139,-1.57,0.431,0.497,0.41,-0.148,-0.625,-0.535,-0.616,-0.121,-0.528,-0.243
1.011,-1.816,-0.477,1.339,1.147,-1.577,0.43,0.496,0.409,-0.151,-0.626,-0.537,-0.617,-0.123,-0.528,-0.244
1.012,-1.831,-0.495,1.337,1.163,-1.584,0.42,0.494,0.407,-0.153,-0.632,-0.54,-0.621,-0.123,-0.527,-0.243
1.013,-1.823,-0.491,1.331,1.157,-1.577,0.42,0.497,0.411,-0.151,-0.629,-0.539,-0.618,-0.121,-0.528,-0.241
1.014,-1.81,-0.473,1.337,1.142,-1.573,0.432,0.506,0.418,-0.144,-0.62,-0.534,-0.612,-0.124,-0.531,-0.243
1.015,-1.808,-0.472,1.335,1.14,-1.571,0.431,0.502,0.422,-0.142,-0.619,-0.53,-0.61,-0.124,-0.533,-0.244
1.016,-1.806,-0.476,1.329,1.141,-1.567,0.426,0.502,0.424,-0.141,-0.618,-0.533,-0.61,-0.127,-0.536,-0.244
1.017,-1.809,-0.484,1.325,1.147,-1.567,0.42,0.503,0.421,-0.141,-0.619,-0.536,-0.612,-0.13,-0.539,-0.248
1.018,-1.825,-0.491,1.333,1.158,-1.579,0.421,0.499,0.419,-0.144,-0.624,-0.54,-0.618,-0.135,-0.534,-0.251
1.019,-1.831,-0.489,1.343,1.16,-1.587,0.427,0.495,0.416,-0.147,-0.626,-0.543,-0.622,-0.139,-0.528,-0.253
1.02,-1.829,-0.493,1.337,1.161,-1.583,0.422,0.495,0.418,-0.146,-0.625,-0.542,-0.622,-0.139,-0.534,-0.259
1.021,-1.823,-0.488,1.335,1.156,-1.579,0.424,0.504,0.427,-0.137,-0.618,-0.538,-0.621,-0.142,-0.541,-0.263
1.022,-1.821,-0.49,1.331,1.156,-1.577,0.42,0.503,0.427,-0.134,-0.617,-0.536,-0.621,-0.141,-0.538,-0.261
1.023,-1.817,-0.496,1.321,1.157,-1.569,0.413,0.499,0.425,-0.135,-0.619,-0.539,-0.625,-0.139,-0.538,-0.259
1.024,-1.822,-0.498,1.323,1.16,-1.573,0.412,0.504,0.429,-0.132,-0.617,-0.538,-0.628,-0.141,-0.542,-0.26
1.025,-1.819,-0.495,1.323,1.157,-1.571,0.414,0.507,0.429,-0.131,-0.616,-0.537,-0.627,-0.141,-0.541,-0.26
1.026,-1.803,-0.485,1.318,1.144,-1.56,0.416,0.507,0.433,-0.13,-0.614,-0.536,-0.628,-0.141,-0.544,-0.263
1.027,-1.81,-0.488,1.323,1.149,-1.567,0.417,0.51,0.438,-0.124,-0.612,-0.532,-0.629,-0.144,-0.551,-0.267
1.028,-1.819,-0.495,1.323,1.157,-1.571,0.414,0.511,0.434,-0.124,-0.613,-0.531,-0.63,-0.147,-0.554,-0.267
1.029,-1.821,-0.499,1.321,1.16,-1.571,0.41,0.506,0.432,-0.127,-0.616,-0.531,-0.634,-0.149,-0.553,-0.264
1.03,-1.81,-0.492,1.317,1.151,-1.563,0.412,0.507,0.438,-0.12,-0.611,-0.528,-0.632,-0.15,-0.553,-0.265
1.031,-1.804,-0.484,1.321,1.144,-1.562,0.418,0.513,0.445,-0.116,-0.604,-0.521,-0.629,-0.152,-0.558,-0.27
1.032,-1.802,-0.475,1.327,1.139,-1.565,0.425,0.518,0.45,-0.112,-0.601,-0.519,-0.627,-0.155,-0.556,-0.272
1.033,-1.796,-0.472,1.323,1.134,-1.56,0.425,0.515,0.446,-0.114,-0.605,-0.522,-0.626,-0.154,-0.554,-0.269
1.034,-1.808,-0.479,1.328,1.143,-1.567,0.424,0.515,0.445,-0.115,-0.607,-0.526,-0.63,-0.154,-0.556,-0.268
1.035,-1.81,-0.481,1.329,1.146,-1.569,0.423,0.516,0.446,-0.116,-0.608,-0.529,-0.631,-0.157,-0.557,-0.271
1.036,-1.81,-0.49,1.319,1.151,-1.565,0.414,0.513,0.446,-0.117,-0.612,-0.533,-0.632,-0.154,-0.558,-0.271
1.037,-1.81,-0.493,1.317,1.151,-1.563,0.411,0.516,0.449,-0.114,-0.61,-0.533,-0.629,-0.148,-0.557,-0.267
1.038,-1.806,-0.497,1.309,1.152,-1.558,0.406,0.513,0.447,-0.116,-0.611,-0.532,-0.628,-0.143,-0.561,-0.266
1.039,-1.809,-0.502,1.306,1.156,-1.558,0.402,0.516,0.449,-0.116,-0.613,-0.531,-0.627,-0.141,-0.559,-0.266
1.04,-1.808,-0.499,1.31,1.154,-1.56,0.406,0.521,0.455,-0.113,-0.611,-0.527,-0.623,-0.139,-0.557,-0.263
1.041,-1.815,-0.508,1.307,1.162,-1.561,0.4,0.519,0.451,-0.117,-0.611,-0.528,-0.623,-0.138,-0.561,-0.269
1.042,-1.815,-0.511,1.304,1.163,-1.559,0.396,0.518,0.448,-0.119,-0.612,-0.53,-0.623,-0.134,-0.565,-0.267
1.043,-1.81,-0.509,1.3,1.159,-1.555,0.396,0.515,0.447,-0.122,-0.615,-0.532,-0.625,-0.131,-0.566,-0.264
1.044,-1.812,-0.512,1.3,1.161,-1.556,0.394,0.513,0.448,-0.12,-0.614,-0.53,-0.623,-0.129,-0.565,-0.263
1.045,-1.81,-0.508,1.302,1.159,-1.556,0.397,0.516,0.45,-0.117,-0.614,-0.53,-0.622,-0.128,-0.57,-0.258
1.046,-1.813,-0.506,1.307,1.16,-1.56,0.401,0.518,0.45,-0.117,-0.615,-0.53,-0.62,-0.125,-0.574,-0.26
1.047,-1.81,-0.505,1.305,1.157,-1.558,0.4,0.512,0.446,-0.119,-0.616,-0.531,-0.62,-0.12,-0.569,-0.256
1.048,-1.812,-0.51,1.302,1.161,-1.557,0.396,0.512,0.447,-0.119,-0.613,-0.528,-0.619,-0.115,-0.57,-0.253
1.049,-1.812,-0.515,1.296,1.163,-1.554,0.391,0.514,0.451,-0.117,-0.618,-0.531,-0.62,-0.112,-0.577,-0.254
1.05,-1.818,-0.526,1.292,1.172,-1.555,0.383,0.511,0.449,-0.123,-0.626,-0.541,-0.627,-0.116,-0.577,-0.251
1.051,-1.827,-0.532,1.295,1.18,-1.561,0.381,0.513,0.447,-0.127,-0.628,-0.543,-0.628,-0.118,-0.581,-0.252
1.052,-1.829,-0.528,1.302,1.178,-1.565,0.387,0.516,0.446,-0.13,-0.632,-0.546,-0.63,-0.126,-0.577,-0.252
1.053,-1.837,-0.531,1.306,1.185,-1.571,0.387,0.517,0.445,-0.134,-0.636,-0.552,-0.634,-0.132,-0.571,-0.249
1.054,-1.835,-0.535,1.3,1.185,-1.567,0.382,0.516,0.442,-0.137,-0.64,-0.557,-0.639,-0.135,-0.571,-0.251
1.055,-1.831,-0.533,1.298,1.183,-1.565,0.383,0.517,0.444,-0.135,-0.639,-0.557,-0.641,-0.14,-0.572,-0.255
1.056,-1.822,-0.523,1.298,1.173,-1.56,0.388,0.521,0.448,-0.13,-0.637,-0.556,-0.638,-0.138,-0.578,-0.256
1.057,-1.805,-0.507,1.298,1.156,-1.552,0.395,0.524,0.451,-0.125,-0.633,-0.552,-0.634,-0.135,-0.579,-0.254
1.058,-1.798,-0.498,1.3,1.148,-1.549,0.401,0.523,0.454,-0.123,-0.629,-0.547,-0.63,-0.139,-0.576,-0.256
1.059,-1.806,-0.503,1.302,1.155,-1.554,0.399,0.518,0.449,-0.128,-0.633,-0.553,-0.635,-0.144,-0.581,-0.26
1.06,-1.81,-0.502,1.308,1.155,-1.558,0.403,0.517,0.446,-0.131,-0.637,-0.555,-0.637,-0.147,-0.578,-0.259
1.061,-1.8,-0.495,1.305,1.147,-1.552,0.405,0.519,0.447,-0.131,-0.638,-0.554,-0.634,-0.146,-0.579,-0.256
1.062,-1.8,-0.503,1.297,1.151,-1.548,0.397,0.516,0.441,-0.136,-0.641,-0.556,-0.636,-0.144,-0.583,-0.258
1.063,-1.812,-0.511,1.302,1.161,-1.557,0.396,0.517,0.438,-0.14,-0.645,-0.559,-0.64,-0.147,-0.581,-0.26
1.064,-1.823,-0.514,1.308,1.169,-1.565,0.397,0.521,0.44,-0.14,-0.645,-0.56,-0.639,-0.153,-0.584,-0.261
1.065,-1.819,-0.519,1.3,1.169,-1.56,0.391,0.518,0.44,-0.14,-0.645,-0.557,-0.637,-0.151,-0.582,-0.26
1.066,-1.823,-0.527,1.296,1.175,-1.56,0.385,0.516,0.437,-0.142,-0.647,-0.555,-0.637,-0.147,-0.578,-0.26
1.067,-1.827,-0.527,1.3,1.177,-1.563,0.386,0.52,0.437,-0.14,-0.645,-0.553,-0.638,-0.149,-0.582,-0.261
1.068,-1.814,-0.517,1.296,1.166,-1.556,0.39,0.524,0.44,-0.138,-0.64,-0.548,-0.634,-0.146,-0.584,-0.259
1.069,-1.808,-0.51,1.298,1.159,-1.552,0.394,0.523,0.439,-0.139,-0.64,-0.547,-0.636,-0.147,-0.585,-0.258
1.07,-1.808,-0.507,1.3,1.157,-1.554,0.397,0.519,0.435,-0.141,-0.643,-0.549,-0.637,-0.149,-0.584,-0.256
1.071,-1.811,-0.51,1.3,1.161,-1.556,0.395,0.514,0.43,-0.146,-0.645,-0.55,-0.637,-0.148,-0.58,-0.253
1.072,-1.802,-0.502,1.3,1.151,-1.55,0.399,0.514,0.429,-0.145,-0.643,-0.544,-0.636,-0.147,-0.576,-0.251
1.073,-1.802,-0.496,1.306,1.149,-1.554,0.405,0.516,0.43,-0.143,-0.641,-0.541,-0.634,-0.147,-0.576,-0.252
1.074,-1.812,-0.507,1.305,1.159,-1.558,0.399,0.513,0.423,-0.149,-0.645,-0.543,-0.635,-0.15,-0.58,-0.254
1.075,-1.809,-0.511,1.297,1.161,-1.553,0.393,0.509,0.417,-0.154,-0.646,-0.545,-0.635,-0.149,-0.577,-0.251
1.076,-1.815,-0.514,1.302,1.165,-1.558,0.394,0.507,0.415,-0.156,-0.645,-0.544,-0.634,-0.15,-0.577,-0.249
1.077,-1.81,-0.509,1.3,1.159,-1.556,0.396,0.507,0.414,-0.155,-0.643,-0.538,-0.631,-0.152,-0.577,-0.249
1.078,-1.804,-0.502,1.302,1.153,-1.552,0.4,0.501,0.407,-0.161,-0.647,-0.54,-0.634,-0.156,-0.572,-0.247
1.079,-1.821,-0.507,1.313,1.164,-1.567,0.403,0.499,0.403,-0.163,-0.647,-0.541,-0.635,-0.161,-0.569,-0.247
1.08,-1.815,-0.501,1.315,1.159,-1.565,0.406,0.503,0.405,-0.158,-0.636,-0.533,-0.631,-0.158,-0.57,-0.245
1.081,-1.799,-0.494,1.304,1.147,-1.552,0.405,0.502,0.401,-0.159,-0.639,-0.534,-0.631,-0.157,-0.57,-0.243
1.082,-1.802,-0.492,1.311,1.147,-1.556,0.409,0.504,0.399,-0.162,-0.641,-0.535,-0.632,-0.157,-0.563,-0.242
1.083,-1.812,-0.492,1.32,1.153,-1.566,0.414,0.505,0.396,-0.166,-0.642,-0.536,-0.634,-0.158,-0.561,-0.243
1.084,-1.815,-0.497,1.319,1.157,-1.567,0.41,0.503,0.393,-0.171,-0.646,-0.54,-0.638,-0.162,-0.562,-0.245
1.085,-1.821,-0.505,1.316,1.163,-1.569,0.406,0.501,0.386,-0.176,-0.649,-0.543,-0.639,-0.162,-0.559,-0.247
1.086,-1.829,-0.517,1.312,1.173,-1.571,0.398,0.495,0.38,-0.181,-0.654,-0.544,-0.64,-0.162,-0.559,-0.249
1.087,-1.823,-0.514,1.309,1.169,-1.566,0.398,0.494,0.38,-0.18,-0.651,-0.538,-0.635,-0.16,-0.561,-0.249
1.088,-1.822,-0.52,1.302,1.171,-1.562,0.391,0.49,0.378,-0.182,-0.651,-0.537,-0.633,-0.155,-0.561,-0.247
1.089,-1.822,-0.526,1.296,1.174,-1.558,0.385,0.484,0.372,-0.187,-0.657,-0.544,-0.638,-0.158,-0.558,-0.249
1.09,-1.823,-0.517,1.305,1.17,-1.563,0.394,0.481,0.37,-0.188,-0.654,-0.543,-0.634,-0.159,-0.555,-0.251
1.091,-1.833,-0.519,1.314,1.176,-1.573,0.398,0.48,0.368,-0.189,-0.653,-0.541,-0.634,-0.158,-0.553,-0.249
1.092,-1.828,-0.517,1.311,1.173,-1.569,0.397,0.478,0.365,-0.191,-0.654,-0.543,-0.636,-0.159,-0.552,-0.247
1.093,-1.82,-0.504,1.317,1.162,-1.569,0.406,0.483,0.366,-0.189,-0.651,-0.539,-0.629,-0.16,-0.548,-0.247
1.094,-1.822,-0.503,1.319,1.162,-1.571,0.408,0.486,0.364,-0.19,-0.649,-0.536,-0.626,-0.159,-0.549,-0.248
1.095,-1.819,-0.501,1.317,1.16,-1.567,0.407,0.484,0.361,-0.193,-0.65,-0.535,-0.627,-0.158,-0.55,-0.243
1.096,-1.819,-0.501,1.317,1.161,-1.568,0.408,0.481,0.357,-0.195,-0.651,-0.533,-0.626,-0.157,-0.544,-0.241
1.097,-1.821,-0.508,1.313,1.165,-1.567,0.402,0.48,0.354,-0.197,-0.649,-0.532,-0.625,-0.157,-0.544,-0.24
1.098,-1.811,-0.505,1.306,1.158,-1.558,0.401,0.481,0.355,-0.196,-0.647,-0.529,-0.622,-0.149,-0.551,-0.234
1.099,-1.807,-0.503,1.304,1.155,-1.556,0.401,0.483,0.355,-0.193,-0.644,-0.525,-0.618,-0.143,-0.554,-0.235
1.1,-1.815,-0.51,1.304,1.163,-1.56,0.397,0.481,0.353,-0.194,-0.643,-0.525,-0.621,-0.143,-0.553,-0.235
1.101,-1.817,-0.512,1.305,1.165,-1.561,0.397,0.48,0.351,-0.195,-0.643,-0.523,-0.625,-0.141,-0.555,-0.234
1.102,-1.81,-0.504,1.306,1.157,-1.558,0.401,0.484,0.352,-0.196,-0.642,-0.529,-0.626,-0.143,-0.551,-0.236
1.103,-1.81,-0.5,1.31,1.155,-1.56,0.405,0.484,0.353,-0.196,-0.645,-0.532,-0.627,-0.144,-0.545,-0.234
1.104,-1.808,-0.497,1.31,1.153,-1.559,0.407,0.478,0.35,-0.2,-0.648,-0.535,-0.629,-0.141,-0.549,-0.23
1.105,-1.805,-0.488,1.317,1.147,-1.561,0.414,0.478,0.348,-0.201,-0.647,-0.536,-0.631,-0.141,-0.543,-0.225
1.106,-1.811,-0.484,1.327,1.148,-1.569,0.421,0.477,0.345,-0.202,-0.646,-0.533,-0.631,-0.141,-0.537,-0.227
1.107,-1.817,-0.491,1.327,1.154,-1.572,0.418,0.474,0.341,-0.208,-0.649,-0.534,-0.631,-0.142,-0.543,-0.231
1.108,-1.819,-0.498,1.321,1.159,-1.571,0.412,0.471,0.336,-0.212,-0.65,-0.532,-0.628,-0.139,-0.544,-0.229
1.109,-1.831,-0.514,1.316,1.173,-1.573,0.401,0.464,0.328,-0.218,-0.656,-0.532,-0.632,-0.139,-0.54,-0.228
1.11,-1.831,-0.509,1.321,1.171,-1.577,0.406,0.465,0.326,-0.221,-0.659,-0.535,-0.634,-0.144,-0.534,-0.227
1.111,-1.809,-0.487,1.322,1.147,-1.565,0.417,0.469,0.328,-0.219,-0.656,-0.532,-0.629,-0.141,-0.525,-0.224
1.112,-1.803,-0.488,1.315,1.145,-1.558,0.413,0.469,0.328,-0.22,-0.656,-0.532,-0.625,-0.139,-0.522,-0.222
1.113,-1.812,-0.492,1.32,1.153,-1.566,0.413,0.47,0.331,-0.217,-0.657,-0.532,-0.623,-0.142,-0.528,-0.224
1.114,-1.813,-0.491,1.322,1.153,-1.568,0.415,0.471,0.331,-0.216,-0.656,-0.529,-0.622,-0.147,-0.53,-0.226
1.115,-1.811,-0.489,1.322,1.15,-1.567,0.416,0.467,0.329,-0.219,-0.657,-0.532,-0.621,-0.152,-0.527,-0.228
1.116,-1.816,-0.491,1.325,1.153,-1.571,0.417,0.461,0.322,-0.228,-0.666,-0.54,-0.626,-0.159,-0.523,-0.228
1.117,-1.823,-0.498,1.325,1.161,-1.575,0.413,0.461,0.318,-0.232,-0.67,-0.545,-0.629,-0.163,-0.528,-0.23
1.118,-1.825,-0.5,1.324,1.163,-1.574,0.411,0.465,0.321,-0.229,-0.666,-0.542,-0.626,-0.157,-0.536,-0.232
1.119,-1.818,-0.495,1.323,1.157,-1.571,0.414,0.465,0.321,-0.229,-0.666,-0.539,-0.625,-0.153,-0.528,-0.231
1.12,-1.812,-0.48,1.331,1.146,-1.571,0.425,0.466,0.318,-0.231,-0.665,-0.542,-0.625,-0.155,-0.521,-0.231
1.121,-1.809,-0.47,1.338,1.14,-1.573,0.434,0.47,0.321,-0.23,-0.662,-0.539,-0.624,-0.159,-0.519,-0.232
1.122,-1.812,-0.468,1.344,1.139,-1.578,0.438,0.476,0.326,-0.228,-0.661,-0.535,-0.622,-0.16,-0.516,-0.232
1.123,-1.808,-0.468,1.341,1.138,-1.575,0.436,0.48,0.327,-0.226,-0.66,-0.534,-0.62,-0.155,-0.517,-0.231
1.124,-1.816,-0.478,1.337,1.147,-1.577,0.429,0.479,0.32,-0.233,-0.668,-0.545,-0.625,-0.16,-0.52,-0.23
1.125,-1.824,-0.485,1.339,1.155,-1.581,0.427,0.478,0.314,-0.242,-0.676,-0.558,-0.629,-0.164,-0.523,-0.229
1.126,-1.821,-0.484,1.336,1.153,-1.578,0.426,0.481,0.316,-0.242,-0.676,-0.556,-0.627,-0.157,-0.521,-0.225
1.127,-1.82,-0.487,1.333,1.153,-1.576,0.422,0.48,0.317,-0.242,-0.676,-0.554,-0.626,-0.152,-0.526,-0.223
1.128,-1.811,-0.479,1.332,1.145,-1.571,0.426,0.481,0.321,-0.238,-0.673,-0.552,-0.625,-0.152,-0.529,-0.226
1.129,-1.808,-0.468,1.34,1.137,-1.573,0.436,0.483,0.323,-0.236,-0.673,-0.553,-0.624,-0.15,-0.522,-0.222
1.13,-1.812,-0.472,1.34,1.143,-1.576,0.434,0.479,0.319,-0.24,-0.677,-0.558,-0.628,-0.149,-0.518,-0.216
1.131,-1.813,-0.471,1.341,1.142,-1.577,0.435,0.477,0.316,-0.243,-0.681,-0.567,-0.632,-0.15,-0.513,-0.215
1.132,-1.819,-0.469,1.351,1.144,-1.585,0.441,0.478,0.316,-0.245,-0.684,-0.573,-0.637,-0.148,-0.516,-0.215
1.133,-1.825,-0.469,1.356,1.147,-1.591,0.444,0.479,0.317,-0.245,-0.685,-0.573,-0.639,-0.148,-0.521,-0.218
1.134,-1.825,-0.463,1.361,1.143,-1.593,0.449,0.478,0.315,-0.248,-0.688,-0.576,-0.638,-0.148,-0.515,-0.22
1.135,-1.823,-0.46,1.363,1.141,-1.593,0.452,0.479,0.315,-0.248,-0.686,-0.574,-0.637,-0.151,-0.514,-0.222
1.136,-1.824,-0.461,1.363,1.142,-1.593,0.451,0.476,0.314,-0.25,-0.69,-0.575,-0.637,-0.153,-0.517,-0.223
1.137,-1.825,-0.466,1.359,1.145,-1.593,0.447,0.475,0.313,-0.254,-0.693,-0.575,-0.637,-0.155,-0.518,-0.223
1.138,-1.826,-0.471,1.355,1.149,-1.59,0.442,0.479,0.314,-0.254,-0.694,-0.574,-0.637,-0.16,-0.516,-0.223
1.139,-1.831,-0.476,1.355,1.154,-1.593,0.439,0.48,0.314,-0.253,-0.694,-0.573,-0.637,-0.163,-0.515,-0.226
1.14,-1.831,-0.472,1.359,1.152,-1.595,0.444,0.482,0.316,-0.252,-0.693,-0.57,-0.635,-0.165,-0.512,-0.226
1.141,-1.825,-0.474,1.351,1.149,-1.588,0.439,0.474,0.308,-0.26,-0.701,-0.577,-0.636,-0.163,-0.508,-0.221
1.142,-1.826,-0.475,1.351,1.151,-1.589,0.438,0.472,0.309,-0.26,-0.698,-0.574,-0.635,-0.159,-0.508,-0.221
1.143,-1.83,-0.469,1.361,1.149,-1.595,0.446,0.48,0.316,-0.256,-0.693,-0.571,-0.634,-0.162,-0.511,-0.218
1.144,-1.831,-0.472,1.359,1.151,-1.595,0.444,0.481,0.312,-0.262,-0.7,-0.576,-0.635,-0.167,-0.515,-0.212
1.145,-1.836,-0.477,1.359,1.157,-1.597,0.441,0.481,0.311,-0.262,-0.703,-0.577,-0.636,-0.169,-0.513,-0.212
1.146,-1.836,-0.481,1.355,1.159,-1.595,0.437,0.475,0.306,-0.264,-0.705,-0.58,-0.638,-0.17,-0.512,-0.209
1.147,-1.835,-0.482,1.353,1.158,-1.593,0.435,0.473,0.306,-0.265,-0.705,-0.578,-0.639,-0.172,-0.517,-0.209
1.148,-1.833,-0.481,1.352,1.157,-1.592,0.435,0.476,0.31,-0.263,-0.705,-0.572,-0.638,-0.174,-0.519,-0.211
